time,ppg_med
1721884419.087,53.0,
1721884419.112,64.0,
1721884419.1369998,62.0,
1721884419.162,14.0,
1721884419.1869998,-89.0,
1721884419.212,-212.0,
1721884419.237,-294.0,
1721884419.2619998,-302.0,
1721884419.287,-251.0,
1721884419.3119998,-192.0,
1721884419.337,-161.0,
1721884419.362,-150.0,
1721884419.3869998,-126.0,
1721884419.412,-73.0,
1721884419.4369998,-3.0,
1721884419.462,59.0,
1721884419.487,101.0,
1721884419.512,133.0,
1721884419.537,165.0,
1721884419.562,194.0,
1721884419.587,207.0,
1721884419.612,198.0,
1721884419.637,177.0,
1721884419.662,161.0,
1721884419.687,160.0,
1721884419.712,167.0,
1721884419.737,169.0,
1721884419.762,158.0,
1721884419.787,140.0,
1721884419.812,125.0,
1721884419.837,121.0,
1721884419.862,123.0,
1721884419.8869998,126.0,
1721884419.912,127.0,
1721884419.9369998,132.0,
1721884419.962,146.0,
1721884419.9869998,166.0,
1721884420.0119998,181.0,
1721884420.037,182.0,
1721884420.0619998,168.0,
1721884420.087,147.0,
1721884420.1119998,123.0,
1721884420.1369998,90.0,
1721884420.162,40.0,
1721884420.1869998,-21.0,
1721884420.212,-73.0,
1721884420.2369998,-93.0,
1721884420.2619998,-79.0,
1721884420.287,-52.0,
1721884420.312,-43.0,
1721884420.337,-66.0,
1721884420.362,-112.0,
1721884420.3869998,-159.0,
1721884420.412,-183.0,
1721884420.437,-181.0,
1721884420.462,-161.0,
1721884420.487,-139.0,
1721884420.5119998,-123.0,
1721884420.537,-113.0,
1721884420.562,-106.0,
1721884420.587,-98.0,
1721884420.612,-91.0,
1721884420.6369998,-88.0,
1721884420.662,-91.0,
1721884420.687,-94.0,
1721884420.7120001,-92.0,
1721884420.737,-85.0,
1721884420.762,-74.0,
1721884420.787,-65.0,
1721884420.812,-57.0,
1721884420.8370001,-46.0,
1721884420.862,-29.0,
1721884420.887,-9.0,
1721884420.912,9.0,
1721884420.937,19.0,
1721884420.9620001,18.0,
1721884420.987,8.0,
1721884421.012,-9.0,
1721884421.037,-28.0,
1721884421.062,-39.0,
1721884421.087,-41.0,
1721884421.112,-35.0,
1721884421.1369998,-32.0,
1721884421.162,-38.0,
1721884421.1869998,-56.0,
1721884421.212,-78.0,
1721884421.237,-97.0,
1721884421.2619998,-111.0,
1721884421.287,-118.0,
1721884421.3119998,-119.0,
1721884421.337,-115.0,
1721884421.362,-106.0,
1721884421.3869998,-93.0,
1721884421.412,-70.0,
1721884421.4369998,-28.0,
1721884421.462,38.0,
1721884421.487,121.0,
1721884421.512,195.0,
1721884421.537,238.0,
1721884421.562,240.0,
1721884421.587,212.0,
1721884421.612,179.0,
1721884421.637,158.0,
1721884421.662,152.0,
1721884421.687,153.0,
1721884421.712,148.0,
1721884421.737,133.0,
1721884421.762,114.0,
1721884421.787,96.0,
1721884421.812,82.0,
1721884421.837,69.0,
1721884421.862,47.0,
1721884421.8869998,10.0,
1721884421.912,-35.0,
1721884421.9369998,-70.0,
1721884421.962,-74.0,
1721884421.9869998,-40.0,
1721884422.0119998,18.0,
1721884422.037,76.0,
1721884422.0619998,114.0,
1721884422.087,124.0,
1721884422.1119998,112.0,
1721884422.1369998,83.0,
1721884422.162,43.0,
1721884422.1869998,-2.0,
1721884422.212,-45.0,
1721884422.2369998,-73.0,
1721884422.2619998,-82.0,
1721884422.287,-77.0,
1721884422.312,-71.0,
1721884422.337,-72.0,
1721884422.362,-80.0,
1721884422.3869998,-84.0,
1721884422.412,-80.0,
1721884422.437,-70.0,
1721884422.462,-63.0,
1721884422.487,-66.0,
1721884422.5119998,-74.0,
1721884422.537,-79.0,
1721884422.562,-73.0,
1721884422.587,-60.0,
1721884422.612,-47.0,
1721884422.6369998,-38.0,
1721884422.662,-30.0,
1721884422.687,-17.0,
1721884422.7120001,1.0,
1721884422.737,19.0,
1721884422.762,30.0,
1721884422.787,30.0,
1721884422.812,23.0,
1721884422.8370001,13.0,
1721884422.862,5.0,
1721884422.887,3.0,
1721884422.912,12.0,
1721884422.937,29.0,
1721884422.9620001,48.0,
1721884422.987,59.0,
1721884423.012,58.0,
1721884423.037,50.0,
1721884423.062,41.0,
1721884423.087,32.0,
1721884423.112,21.0,
1721884423.1369998,5.0,
1721884423.162,-9.0,
1721884423.1869998,-9.0,
1721884423.212,3.0,
1721884423.237,16.0,
1721884423.2619998,21.0,
1721884423.287,16.0,
1721884423.3119998,11.0,
1721884423.337,14.0,
1721884423.362,19.0,
1721884423.3869998,15.0,
1721884423.412,0.0,
1721884423.4369998,-15.0,
1721884423.462,-19.0,
1721884423.487,-13.0,
1721884423.512,-7.0,
1721884423.537,-11.0,
1721884423.562,-19.0,
1721884423.587,-19.0,
1721884423.612,-5.0,
1721884423.637,14.0,
1721884423.662,23.0,
1721884423.687,17.0,
1721884423.712,2.0,
1721884423.737,-10.0,
1721884423.762,-11.0,
1721884423.787,-5.0,
1721884423.812,-3.0,
1721884423.837,-14.0,
1721884423.862,-37.0,
1721884423.8869998,-62.0,
1721884423.912,-76.0,
1721884423.9369998,-74.0,
1721884423.962,-65.0,
1721884423.9869998,-60.0,
1721884424.0119998,-68.0,
1721884424.037,-84.0,
1721884424.0619998,-92.0,
1721884424.087,-85.0,
1721884424.1119998,-68.0,
1721884424.1369998,-51.0,
1721884424.162,-39.0,
1721884424.1869998,-27.0,
1721884424.212,-8.0,
1721884424.2369998,19.0,
1721884424.2619998,49.0,
1721884424.287,74.0,
1721884424.312,94.0,
1721884424.337,114.0,
1721884424.362,136.0,
1721884424.3869998,155.0,
1721884424.412,167.0,
1721884424.437,168.0,
1721884424.462,161.0,
1721884424.487,152.0,
1721884424.5119998,147.0,
1721884424.537,145.0,
1721884424.562,144.0,
1721884424.587,138.0,
1721884424.612,124.0,
1721884424.6369998,108.0,
1721884424.662,95.0,
1721884424.687,87.0,
1721884424.7120001,80.0,
1721884424.737,71.0,
1721884424.762,61.0,
1721884424.787,55.0,
1721884424.812,52.0,
1721884424.8370001,43.0,
1721884424.862,25.0,
1721884424.887,1.0,
1721884424.912,-20.0,
1721884424.937,-35.0,
1721884424.9620001,-54.0,
1721884424.987,-84.0,
1721884425.012,-120.0,
1721884425.037,-148.0,
1721884425.062,-166.0,
1721884425.087,-188.0,
1721884425.112,-227.0,
1721884425.1369998,-276.0,
1721884425.162,-314.0,
1721884425.1869998,-336.0,
1721884425.212,-355.0,
1721884425.237,-392.0,
1721884425.2619998,-436.0,
1721884425.287,-461.0,
1721884425.3119998,-459.0,
1721884425.337,-454.0,
1721884425.362,-478.0,
1721884425.3869998,-520.0,
1721884425.412,-540.0,
1721884425.4369998,-517.0,
1721884425.462,-474.0,
1721884425.487,-446.0,
1721884425.512,-421.0,
1721884425.537,-355.0,
1721884425.562,-238.0,
1721884425.587,-128.0,
1721884425.612,-93.0,
1721884425.637,-126.0,
1721884425.662,-148.0,
1721884425.687,-98.0,
1721884425.712,-9.0,
1721884425.737,38.0,
1721884425.762,24.0,
1721884425.787,22.0,
1721884425.812,103.0,
1721884425.837,241.0,
1721884425.862,351.0,
1721884425.8869998,396.0,
1721884425.912,432.0,
1721884425.9369998,518.0,
1721884425.962,624.0,
1721884425.9869998,675.0,
1721884426.0119998,669.0,
1721884426.037,696.0,
1721884426.0619998,825.0,
1721884426.087,1001.0,
1721884426.1119998,1023.0,
1721884426.1369998,1023.0,
1721884426.162,1023.0,
1721884426.1869998,1023.0,
1721884426.212,1023.0,
1721884426.2369998,1023.0,
1721884426.2619998,1023.0,
1721884426.287,1023.0,
1721884426.312,1023.0,
1721884426.337,1023.0,
1721884426.362,1023.0,
1721884426.3869998,1023.0,
1721884426.412,1023.0,
1721884426.437,1023.0,
1721884426.462,1023.0,
1721884426.487,1023.0,
1721884426.5119998,1023.0,
1721884426.537,1023.0,
1721884426.562,1023.0,
1721884426.587,1023.0,
1721884426.612,357.0,
1721884426.6369998,0.0,
1721884426.662,0.0,
1721884426.687,0.0,
1721884426.7120001,0.0,
1721884426.737,0.0,
1721884426.762,0.0,
1721884426.787,0.0,
1721884426.812,0.0,
1721884426.8370001,0.0,
1721884426.862,0.0,
1721884426.887,0.0,
1721884426.912,0.0,
1721884426.937,0.0,
1721884426.9620001,-1015.0,
1721884426.987,335.0,
1721884427.012,1023.0,
1721884427.037,1023.0,
1721884427.062,1023.0,
1721884427.087,1023.0,
1721884427.112,1023.0,
1721884427.1369998,1023.0,
1721884427.162,1023.0,
1721884427.1869998,1023.0,
1721884427.212,1023.0,
1721884427.237,1023.0,
1721884427.2619998,1023.0,
1721884427.287,1023.0,
1721884427.3119998,499.0,
1721884427.337,-363.0,
1721884427.362,0.0,
1721884427.3869998,0.0,
1721884427.412,0.0,
1721884427.4369998,0.0,
1721884427.462,0.0,
1721884427.487,0.0,
1721884427.512,0.0,
1721884427.537,0.0,
1721884427.562,0.0,
1721884427.587,0.0,
1721884427.612,0.0,
1721884427.637,-825.0,
1721884427.662,425.0,
1721884427.687,629.0,
1721884427.712,309.0,
1721884427.737,250.0,
1721884427.762,662.0,
1721884427.787,1023.0,
1721884427.812,1023.0,
1721884427.837,1023.0,
1721884427.862,1023.0,
1721884427.8869998,1023.0,
1721884427.912,1023.0,
1721884427.9369998,1023.0,
1721884427.962,1023.0,
1721884427.9869998,1023.0,
1721884428.0119998,1023.0,
1721884428.037,1023.0,
1721884428.0619998,1023.0,
1721884428.087,1023.0,
1721884428.1119998,1023.0,
1721884428.1369998,1023.0,
1721884428.162,1023.0,
1721884428.1869998,1023.0,
1721884428.212,1023.0,
1721884428.2369998,679.0,
1721884428.2619998,-985.0,
1721884428.287,0.0,
1721884428.312,0.0,
1721884428.337,0.0,
1721884428.362,-1022.0,
1721884428.3869998,-357.0,
1721884428.412,750.0,
1721884428.437,1023.0,
1721884428.462,1023.0,
1721884428.487,1023.0,
1721884428.5119998,-188.0,
1721884428.537,0.0,
1721884428.562,0.0,
1721884428.587,0.0,
1721884428.612,0.0,
1721884428.6369998,0.0,
1721884428.662,0.0,
1721884428.687,0.0,
1721884428.7120001,0.0,
1721884428.737,0.0,
1721884428.762,0.0,
1721884428.787,0.0,
1721884428.812,111.0,
1721884428.8370001,1016.0,
1721884428.862,928.0,
1721884428.887,-212.0,
1721884428.912,0.0,
1721884428.937,0.0,
1721884428.9620001,0.0,
1721884428.987,1023.0,
1721884429.012,1023.0,
1721884429.037,1023.0,
1721884429.062,1023.0,
1721884429.087,1023.0,
1721884429.112,1023.0,
1721884429.1369998,1023.0,
1721884429.162,1023.0,
1721884429.1869998,1023.0,
1721884429.212,1023.0,
1721884429.237,1023.0,
1721884429.2619998,1023.0,
1721884429.287,1023.0,
1721884429.3119998,1023.0,
1721884429.337,1023.0,
1721884429.362,1023.0,
1721884429.3869998,1023.0,
1721884429.412,1023.0,
1721884429.4369998,1023.0,
1721884429.462,1023.0,
1721884429.487,1023.0,
1721884429.512,1023.0,
1721884429.537,825.0,
1721884429.562,448.0,
1721884429.587,190.0,
1721884429.612,120.0,
1721884429.637,164.0,
1721884429.662,212.0,
1721884429.687,267.0,
1721884429.712,410.0,
1721884429.737,647.0,
1721884429.762,845.0,
1721884429.787,859.0,
1721884429.812,714.0,
1721884429.837,587.0,
1721884429.862,602.0,
1721884429.8869998,679.0,
1721884429.912,624.0,
1721884429.9369998,354.0,
1721884429.962,8.0,
1721884429.9869998,-192.0,
1721884430.0119998,-157.0,
1721884430.037,-4.0,
1721884430.0619998,96.0,
1721884430.087,84.0,
1721884430.1119998,45.0,
1721884430.1369998,67.0,
1721884430.162,82.0,
1721884430.1869998,-173.0,
1721884430.212,-1018.0,
1721884430.2369998,0.0,
1721884430.2619998,0.0,
1721884430.287,0.0,
1721884430.312,0.0,
1721884430.337,0.0,
1721884430.362,0.0,
1721884430.3869998,0.0,
1721884430.412,0.0,
1721884430.437,0.0,
1721884430.462,0.0,
1721884430.487,0.0,
1721884430.5119998,0.0,
1721884430.537,212.0,
1721884430.562,1023.0,
1721884430.587,1023.0,
1721884430.612,1023.0,
1721884430.6369998,1023.0,
1721884430.662,1023.0,
1721884430.687,1023.0,
1721884430.7120001,1023.0,
1721884430.737,1023.0,
1721884430.762,1023.0,
1721884430.787,1023.0,
1721884430.812,1023.0,
1721884430.8370001,1023.0,
1721884430.862,560.0,
1721884430.887,25.0,
1721884430.912,113.0,
1721884430.937,382.0,
1721884430.9620001,274.0,
1721884430.987,-313.0,
1721884431.012,-942.0,
1721884431.037,0.0,
1721884431.062,-700.0,
1721884431.087,-98.0,
1721884431.112,303.0,
1721884431.1369998,406.0,
1721884431.162,374.0,
1721884431.1869998,356.0,
1721884431.212,339.0,
1721884431.237,263.0,
1721884431.2619998,156.0,
1721884431.287,104.0,
1721884431.3119998,109.0,
1721884431.337,77.0,
1721884431.362,-47.0,
1721884431.3869998,-176.0,
1721884431.412,-178.0,
1721884431.4369998,-44.0,
1721884431.462,79.0,
1721884431.487,53.0,
1721884431.512,-93.0,
1721884431.537,-205.0,
1721884431.562,-209.0,
1721884431.587,-227.0,
1721884431.612,-470.0,
1721884431.637,0.0,
1721884431.662,0.0,
1721884431.687,0.0,
1721884431.712,0.0,
1721884431.737,0.0,
1721884431.762,0.0,
1721884431.787,0.0,
1721884431.812,0.0,
1721884431.837,-367.0,
1721884431.862,562.0,
1721884431.8869998,1023.0,
1721884431.912,1023.0,
1721884431.9369998,1023.0,
1721884431.962,1023.0,
1721884431.9869998,1023.0,
1721884432.0119998,1023.0,
1721884432.037,1023.0,
1721884432.0619998,1023.0,
1721884432.087,1023.0,
1721884432.1119998,1023.0,
1721884432.1369998,978.0,
1721884432.162,890.0,
1721884432.1869998,834.0,
1721884432.212,817.0,
1721884432.2369998,797.0,
1721884432.2619998,730.0,
1721884432.287,622.0,
1721884432.312,511.0,
1721884432.337,416.0,
1721884432.362,312.0,
1721884432.3869998,174.0,
1721884432.412,15.0,
1721884432.437,-125.0,
1721884432.462,-227.0,
1721884432.487,-322.0,
1721884432.5119998,-446.0,
1721884432.537,-596.0,
1721884432.562,-734.0,
1721884432.587,-831.0,
1721884432.612,-899.0,
1721884432.6369998,-970.0,
1721884432.662,0.0,
1721884432.687,0.0,
1721884432.7120001,0.0,
1721884432.737,0.0,
1721884432.762,0.0,
1721884432.787,0.0,
1721884432.812,0.0,
1721884432.8370001,0.0,
1721884432.862,0.0,
1721884432.887,0.0,
1721884432.912,0.0,
1721884432.937,0.0,
1721884432.9620001,-949.0,
1721884432.987,-866.0,
1721884433.012,-784.0,
1721884433.037,-684.0,
1721884433.062,-556.0,
1721884433.087,-422.0,
1721884433.112,-300.0,
1721884433.1369998,-173.0,
1721884433.162,1.0,
1721884433.1869998,235.0,
1721884433.212,484.0,
1721884433.237,696.0,
1721884433.2619998,883.0,
1721884433.287,1023.0,
1721884433.3119998,1023.0,
1721884433.337,1023.0,
1721884433.362,1023.0,
1721884433.3869998,1023.0,
1721884433.412,1023.0,
1721884433.4369998,1023.0,
1721884433.462,1023.0,
1721884433.487,1023.0,
1721884433.512,1023.0,
1721884433.537,1023.0,
1721884433.562,1023.0,
1721884433.587,1023.0,
1721884433.612,1023.0,
1721884433.637,1023.0,
1721884433.662,1023.0,
1721884433.687,1023.0,
1721884433.712,1023.0,
1721884433.737,1023.0,
1721884433.762,1023.0,
1721884433.787,0.0,
1721884433.812,0.0,
1721884433.837,0.0,
1721884433.862,0.0,
1721884433.8869998,0.0,
1721884433.912,0.0,
1721884433.9369998,0.0,
1721884433.962,0.0,
1721884433.9869998,0.0,
1721884434.0119998,0.0,
1721884434.037,0.0,
1721884434.0619998,0.0,
1721884434.087,0.0,
1721884434.1119998,-296.0,
1721884434.1369998,563.0,
1721884434.162,969.0,
1721884434.1869998,927.0,
1721884434.212,873.0,
1721884434.2369998,1023.0,
1721884434.2619998,1023.0,
1721884434.287,1023.0,
1721884434.312,1023.0,
1721884434.337,458.0,
1721884434.362,-655.0,
1721884434.3869998,0.0,
1721884434.412,0.0,
1721884434.437,0.0,
1721884434.462,0.0,
1721884434.487,0.0,
1721884434.5119998,0.0,
1721884434.537,0.0,
1721884434.562,0.0,
1721884434.587,0.0,
1721884434.612,0.0,
1721884434.6369998,-151.0,
1721884434.662,790.0,
1721884434.687,881.0,
1721884434.7120001,45.0,
1721884434.737,0.0,
1721884434.762,0.0,
1721884434.787,-964.0,
1721884434.812,224.0,
1721884434.8370001,1023.0,
1721884434.862,1023.0,
1721884434.887,1023.0,
1721884434.912,1023.0,
1721884434.937,1023.0,
1721884434.9620001,1023.0,
1721884434.987,1023.0,
1721884435.012,222.0,
1721884435.037,0.0,
1721884435.062,0.0,
1721884435.087,0.0,
1721884435.112,0.0,
1721884435.1369998,0.0,
1721884435.162,0.0,
1721884435.1869998,0.0,
1721884435.212,0.0,
1721884435.237,0.0,
1721884435.2619998,0.0,
1721884435.287,0.0,
1721884435.3119998,0.0,
1721884435.337,0.0,
1721884435.362,0.0,
1721884435.3869998,0.0,
1721884435.412,0.0,
1721884435.4369998,-83.0,
1721884435.462,1023.0,
1721884435.487,1023.0,
1721884435.512,1023.0,
1721884435.537,1023.0,
1721884435.562,1023.0,
1721884435.587,1023.0,
1721884435.612,1023.0,
1721884435.637,1023.0,
1721884435.662,1023.0,
1721884435.687,1023.0,
1721884435.712,1023.0,
1721884435.737,1023.0,
1721884435.762,1023.0,
1721884435.787,1023.0,
1721884435.812,1023.0,
1721884435.837,1023.0,
1721884435.862,1023.0,
1721884435.8869998,1023.0,
1721884435.912,1023.0,
1721884435.9369998,1023.0,
1721884435.962,1023.0,
1721884435.9869998,1023.0,
1721884436.0119998,803.0,
1721884436.037,816.0,
1721884436.0619998,910.0,
1721884436.087,945.0,
1721884436.1119998,834.0,
1721884436.1369998,576.0,
1721884436.162,287.0,
1721884436.1869998,145.0,
1721884436.212,198.0,
1721884436.2369998,222.0,
1721884436.2619998,-139.0,
1721884436.287,-1011.0,
1721884436.312,0.0,
1721884436.337,0.0,
1721884436.362,0.0,
1721884436.3869998,0.0,
1721884436.412,0.0,
1721884436.437,0.0,
1721884436.462,0.0,
1721884436.487,0.0,
1721884436.5119998,0.0,
1721884436.537,0.0,
1721884436.562,0.0,
1721884436.587,0.0,
1721884436.612,0.0,
1721884436.6369998,0.0,
1721884436.662,520.0,
1721884436.687,1023.0,
1721884436.7120001,1023.0,
1721884436.737,1023.0,
1721884436.762,1003.0,
1721884436.787,289.0,
1721884436.812,-409.0,
1721884436.8370001,0.0,
1721884436.862,0.0,
1721884436.887,0.0,
1721884436.912,0.0,
1721884436.937,0.0,
1721884436.9620001,0.0,
1721884436.987,0.0,
1721884437.012,0.0,
1721884437.037,0.0,
1721884437.062,0.0,
1721884437.087,0.0,
1721884437.112,13.0,
1721884437.1369998,761.0,
1721884437.162,516.0,
1721884437.1869998,-655.0,
1721884437.212,0.0,
1721884437.237,0.0,
1721884437.2619998,0.0,
1721884437.287,0.0,
1721884437.3119998,0.0,
1721884437.337,-835.0,
1721884437.362,1023.0,
1721884437.3869998,1023.0,
1721884437.412,1023.0,
1721884437.4369998,1023.0,
1721884437.462,1023.0,
1721884437.487,1023.0,
1721884437.512,1023.0,
1721884437.537,1023.0,
1721884437.562,1023.0,
1721884437.587,1023.0,
1721884437.612,1023.0,
1721884437.637,1023.0,
1721884437.662,1023.0,
1721884437.687,1023.0,
1721884437.712,1023.0,
1721884437.737,1023.0,
1721884437.762,1023.0,
1721884437.787,1023.0,
1721884437.812,1023.0,
1721884437.837,1023.0,
1721884437.862,1023.0,
1721884437.8869998,1023.0,
1721884437.912,1023.0,
1721884437.9369998,1023.0,
1721884437.962,1023.0,
1721884437.9869998,1023.0,
1721884438.0119998,568.0,
1721884438.037,-506.0,
1721884438.0619998,0.0,
1721884438.087,0.0,
1721884438.1119998,0.0,
1721884438.1369998,-400.0,
1721884438.162,358.0,
1721884438.1869998,-341.0,
1721884438.212,0.0,
1721884438.2369998,0.0,
1721884438.2619998,0.0,
1721884438.287,0.0,
1721884438.312,0.0,
1721884438.337,0.0,
1721884438.362,0.0,
1721884438.3869998,0.0,
1721884438.412,0.0,
1721884438.437,-903.0,
1721884438.462,409.0,
1721884438.487,963.0,
1721884438.5119998,1023.0,
1721884438.537,1023.0,
1721884438.562,1023.0,
1721884438.587,1023.0,
1721884438.612,1023.0,
1721884438.6369998,1023.0,
1721884438.662,1023.0,
1721884438.687,1023.0,
1721884438.7120001,1023.0,
1721884438.737,1023.0,
1721884438.762,1023.0,
1721884438.787,1023.0,
1721884438.812,1023.0,
1721884438.8370001,1023.0,
1721884438.862,1023.0,
1721884438.887,1023.0,
1721884438.912,1023.0,
1721884438.937,1023.0,
1721884438.9620001,1023.0,
1721884438.987,0.0,
1721884439.012,0.0,
1721884439.037,0.0,
1721884439.062,0.0,
1721884439.087,0.0,
1721884439.112,0.0,
1721884439.1369998,0.0,
1721884439.162,0.0,
1721884439.1869998,0.0,
1721884439.212,0.0,
1721884439.237,0.0,
1721884439.2619998,0.0,
1721884439.287,-302.0,
1721884439.3119998,218.0,
1721884439.337,444.0,
1721884439.362,668.0,
1721884439.3869998,1002.0,
1721884439.412,1023.0,
1721884439.4369998,1023.0,
1721884439.462,1023.0,
1721884439.487,1023.0,
1721884439.512,1023.0,
1721884439.537,1023.0,
1721884439.562,1023.0,
1721884439.587,1023.0,
1721884439.612,904.0,
1721884439.637,733.0,
1721884439.662,1023.0,
1721884439.687,1023.0,
1721884439.712,1023.0,
1721884439.737,1023.0,
1721884439.762,498.0,
1721884439.787,-828.0,
1721884439.812,0.0,
1721884439.837,0.0,
1721884439.862,0.0,
1721884439.8869998,0.0,
1721884439.912,0.0,
1721884439.9369998,0.0,
1721884439.962,0.0,
1721884439.9869998,0.0,
1721884440.0119998,0.0,
1721884440.037,0.0,
1721884440.0619998,0.0,
1721884440.087,0.0,
1721884440.1119998,0.0,
1721884440.1369998,0.0,
1721884440.162,444.0,
1721884440.1869998,1023.0,
1721884440.212,1023.0,
1721884440.2369998,0.0,
1721884440.2619998,0.0,
1721884440.287,0.0,
1721884440.312,0.0,
1721884440.337,0.0,
1721884440.362,0.0,
1721884440.3869998,0.0,
1721884440.412,0.0,
1721884440.437,0.0,
1721884440.462,0.0,
1721884440.487,0.0,
1721884440.5119998,1023.0,
1721884440.537,1023.0,
1721884440.562,1023.0,
1721884440.587,1023.0,
1721884440.612,1023.0,
1721884440.6369998,1023.0,
1721884440.662,1023.0,
1721884440.687,1023.0,
1721884440.7120001,1023.0,
1721884440.737,1023.0,
1721884440.762,1023.0,
1721884440.787,1023.0,
1721884440.812,1023.0,
1721884440.8370001,1023.0,
1721884440.862,1023.0,
1721884440.887,1023.0,
1721884440.912,1023.0,
1721884440.937,1023.0,
1721884440.9620001,802.0,
1721884440.987,477.0,
1721884441.012,125.0,
1721884441.037,-213.0,
1721884441.062,-495.0,
1721884441.087,-736.0,
1721884441.112,-984.0,
1721884441.1369998,0.0,
1721884441.162,0.0,
1721884441.1869998,0.0,
1721884441.212,0.0,
1721884441.237,0.0,
1721884441.2619998,0.0,
1721884441.287,0.0,
1721884441.3119998,0.0,
1721884441.337,0.0,
1721884441.362,0.0,
1721884441.3869998,0.0,
1721884441.412,0.0,
1721884441.4369998,0.0,
1721884441.462,0.0,
1721884441.487,0.0,
1721884441.512,0.0,
1721884441.537,0.0,
1721884441.562,0.0,
1721884441.587,0.0,
1721884441.612,0.0,
1721884441.637,-999.0,
1721884441.662,-781.0,
1721884441.687,-543.0,
1721884441.712,-280.0,
1721884441.737,-4.0,
1721884441.762,278.0,
1721884441.787,572.0,
1721884441.812,887.0,
1721884441.837,1023.0,
1721884441.862,1023.0,
1721884441.8869998,1023.0,
1721884441.912,1023.0,
1721884441.9369998,1023.0,
1721884441.962,1023.0,
1721884441.9869998,1023.0,
1721884442.0119998,1023.0,
1721884442.037,1023.0,
1721884442.0619998,1023.0,
1721884442.087,1023.0,
1721884442.1119998,1023.0,
1721884442.1369998,1023.0,
1721884442.162,1023.0,
1721884442.1869998,1023.0,
1721884442.212,1023.0,
1721884442.2369998,1023.0,
1721884442.2619998,1023.0,
1721884442.287,1023.0,
1721884442.312,1023.0,
1721884442.337,1023.0,
1721884442.362,540.0,
1721884442.3869998,-633.0,
1721884442.412,0.0,
1721884442.437,0.0,
1721884442.462,0.0,
1721884442.487,0.0,
1721884442.5119998,0.0,
1721884442.537,0.0,
1721884442.562,0.0,
1721884442.587,0.0,
1721884442.612,0.0,
1721884442.6369998,0.0,
1721884442.662,0.0,
1721884442.687,0.0,
1721884442.7120001,0.0,
1721884442.737,0.0,
1721884442.762,0.0,
1721884442.787,0.0,
1721884442.812,0.0,
1721884442.8370001,0.0,
1721884442.862,0.0,
1721884442.887,0.0,
1721884442.912,1023.0,
1721884442.937,1023.0,
1721884442.9620001,1023.0,
1721884442.987,1023.0,
1721884443.012,1023.0,
1721884443.037,1023.0,
1721884443.062,1023.0,
1721884443.087,1023.0,
1721884443.112,1023.0,
1721884443.1369998,1023.0,
1721884443.162,1023.0,
1721884443.1869998,1023.0,
1721884443.212,1023.0,
1721884443.237,1023.0,
1721884443.2619998,1023.0,
1721884443.287,1023.0,
1721884443.3119998,-160.0,
1721884443.337,0.0,
1721884443.362,-861.0,
1721884443.3869998,139.0,
1721884443.412,243.0,
1721884443.4369998,-769.0,
1721884443.462,0.0,
1721884443.487,0.0,
1721884443.512,0.0,
1721884443.537,-225.0,
1721884443.562,71.0,
1721884443.587,-631.0,
1721884443.612,0.0,
1721884443.637,0.0,
1721884443.662,0.0,
1721884443.687,0.0,
1721884443.712,0.0,
1721884443.737,0.0,
1721884443.762,0.0,
1721884443.787,0.0,
1721884443.812,0.0,
1721884443.837,0.0,
1721884443.862,0.0,
1721884443.8869998,0.0,
1721884443.912,0.0,
1721884443.9369998,0.0,
1721884443.962,0.0,
1721884443.9869998,0.0,
1721884444.0119998,0.0,
1721884444.037,0.0,
1721884444.0619998,0.0,
1721884444.087,-958.0,
1721884444.1119998,-871.0,
1721884444.1369998,-806.0,
1721884444.162,-800.0,
1721884444.1869998,-770.0,
1721884444.212,-520.0,
1721884444.2369998,69.0,
1721884444.2619998,838.0,
1721884444.287,1023.0,
1721884444.312,1023.0,
1721884444.337,879.0,
1721884444.362,228.0,
1721884444.3869998,-147.0,
1721884444.412,-153.0,
1721884444.437,-35.0,
1721884444.462,-77.0,
1721884444.487,-287.0,
1721884444.5119998,-374.0,
1721884444.537,-36.0,
1721884444.562,739.0,
1721884444.587,1023.0,
1721884444.612,1023.0,
1721884444.6369998,1023.0,
1721884444.662,1023.0,
1721884444.687,1023.0,
1721884444.7120001,523.0,
1721884444.737,98.0,
1721884444.762,-140.0,
1721884444.787,-234.0,
1721884444.812,-236.0,
1721884444.8370001,-209.0,
1721884444.862,-235.0,
1721884444.887,-371.0,
1721884444.912,-602.0,
1721884444.937,-835.0,
1721884444.9620001,-964.0,
1721884444.987,-957.0,
1721884445.012,-865.0,
1721884445.037,-769.0,
1721884445.062,-696.0,
1721884445.087,-607.0,
1721884445.112,-456.0,
1721884445.1369998,-257.0,
1721884445.162,-77.0,
1721884445.1869998,32.0,
1721884445.212,98.0,
1721884445.237,202.0,
1721884445.2619998,397.0,
1721884445.287,659.0,
1721884445.3119998,912.0,
1721884445.337,1023.0,
1721884445.362,1023.0,
1721884445.3869998,1023.0,
1721884445.412,1023.0,
1721884445.4369998,1023.0,
1721884445.462,940.0,
1721884445.487,722.0,
1721884445.512,665.0,
1721884445.537,771.0,
1721884445.562,884.0,
1721884445.587,810.0,
1721884445.612,505.0,
1721884445.637,119.0,
1721884445.662,-128.0,
1721884445.687,-126.0,
1721884445.712,56.0,
1721884445.737,255.0,
1721884445.762,352.0,
1721884445.787,331.0,
1721884445.812,244.0,
1721884445.837,156.0,
1721884445.862,99.0,
1721884445.8869998,78.0,
1721884445.912,78.0,
1721884445.9369998,79.0,
1721884445.962,87.0,
1721884445.9869998,141.0,
1721884446.0119998,287.0,
1721884446.037,533.0,
1721884446.0619998,833.0,
1721884446.087,1023.0,
1721884446.1119998,1023.0,
1721884446.1369998,1023.0,
1721884446.162,1023.0,
1721884446.1869998,1023.0,
1721884446.212,1023.0,
1721884446.2369998,1023.0,
1721884446.2619998,1023.0,
1721884446.287,1023.0,
1721884446.312,1023.0,
1721884446.337,770.0,
1721884446.362,-235.0,
1721884446.3869998,0.0,
1721884446.412,0.0,
1721884446.437,0.0,
1721884446.462,0.0,
1721884446.487,0.0,
1721884446.5119998,0.0,
1721884446.537,0.0,
1721884446.562,0.0,
1721884446.587,0.0,
1721884446.612,0.0,
1721884446.6369998,0.0,
1721884446.662,0.0,
1721884446.687,0.0,
1721884446.7120001,-944.0,
1721884446.737,-701.0,
1721884446.762,-337.0,
1721884446.787,75.0,
1721884446.812,395.0,
1721884446.8370001,475.0,
1721884446.862,275.0,
1721884446.887,-89.0,
1721884446.912,-418.0,
1721884446.937,-573.0,
1721884446.9620001,-537.0,
1721884446.987,-355.0,
1721884447.012,-64.0,
1721884447.037,310.0,
1721884447.062,690.0,
1721884447.087,949.0,
1721884447.112,1015.0,
1721884447.1369998,953.0,
1721884447.162,906.0,
1721884447.1869998,935.0,
1721884447.212,948.0,
1721884447.237,800.0,
1721884447.2619998,474.0,
1721884447.287,121.0,
1721884447.3119998,-68.0,
1721884447.337,-33.0,
1721884447.362,136.0,
1721884447.3869998,305.0,
1721884447.412,418.0,
1721884447.4369998,490.0,
1721884447.462,542.0,
1721884447.487,553.0,
1721884447.512,504.0,
1721884447.537,414.0,
1721884447.562,327.0,
1721884447.587,248.0,
1721884447.612,137.0,
1721884447.637,-41.0,
1721884447.662,-250.0,
1721884447.687,-372.0,
1721884447.712,-304.0,
1721884447.737,-50.0,
1721884447.762,247.0,
1721884447.787,395.0,
1721884447.812,290.0,
1721884447.837,1.0,
1721884447.862,-281.0,
1721884447.8869998,-394.0,
1721884447.912,-322.0,
1721884447.9369998,-167.0,
1721884447.962,-24.0,
1721884447.9869998,120.0,
1721884448.0119998,331.0,
1721884448.037,604.0,
1721884448.0619998,818.0,
1721884448.087,842.0,
1721884448.1119998,673.0,
1721884448.1369998,453.0,
1721884448.162,328.0,
1721884448.1869998,325.0,
1721884448.212,367.0,
1721884448.2369998,387.0,
1721884448.2619998,384.0,
1721884448.287,357.0,
1721884448.312,236.0,
1721884448.337,-67.0,
1721884448.362,-521.0,
1721884448.3869998,-952.0,
1721884448.412,0.0,
1721884448.437,0.0,
1721884448.462,0.0,
1721884448.487,0.0,
1721884448.5119998,0.0,
1721884448.537,0.0,
1721884448.562,0.0,
1721884448.587,0.0,
1721884448.612,0.0,
1721884448.6369998,0.0,
1721884448.662,0.0,
1721884448.687,-579.0,
1721884448.7120001,-321.0,
1721884448.737,-207.0,
1721884448.762,-65.0,
1721884448.787,246.0,
1721884448.812,697.0,
1721884448.8370001,1023.0,
1721884448.862,1023.0,
1721884448.887,1023.0,
1721884448.912,928.0,
1721884448.937,861.0,
1721884448.9620001,955.0,
1721884448.987,1023.0,
1721884449.012,1023.0,
1721884449.037,1023.0,
1721884449.062,1021.0,
1721884449.087,1023.0,
1721884449.112,1023.0,
1721884449.1369998,1023.0,
1721884449.162,1023.0,
1721884449.1869998,1023.0,
1721884449.212,1023.0,
1721884449.237,1023.0,
1721884449.2619998,1023.0,
1721884449.287,1023.0,
1721884449.3119998,1023.0,
1721884449.337,1023.0,
1721884449.362,1016.0,
1721884449.3869998,953.0,
1721884449.412,901.0,
1721884449.4369998,916.0,
1721884449.462,1023.0,
1721884449.487,1023.0,
1721884449.512,1023.0,
1721884449.537,1023.0,
1721884449.562,812.0,
1721884449.587,606.0,
1721884449.612,604.0,
1721884449.637,664.0,
1721884449.662,444.0,
1721884449.687,-286.0,
1721884449.712,0.0,
1721884449.737,0.0,
1721884449.762,0.0,
1721884449.787,0.0,
1721884449.812,0.0,
1721884449.837,0.0,
1721884449.862,0.0,
1721884449.8869998,-1003.0,
1721884449.912,-914.0,
1721884449.9369998,-806.0,
1721884449.962,-716.0,
1721884449.9869998,-617.0,
1721884450.0119998,-422.0,
1721884450.037,-139.0,
1721884450.0619998,43.0,
1721884450.087,-86.0,
1721884450.1119998,-515.0,
1721884450.1369998,-968.0,
1721884450.162,0.0,
1721884450.1869998,-1002.0,
1721884450.212,-763.0,
1721884450.2369998,-649.0,
1721884450.2619998,-660.0,
1721884450.287,-634.0,
1721884450.312,-484.0,
1721884450.337,-301.0,
1721884450.362,-206.0,
1721884450.3869998,-150.0,
1721884450.412,59.0,
1721884450.437,503.0,
1721884450.462,1001.0,
1721884450.487,1023.0,
1721884450.5119998,1023.0,
1721884450.537,778.0,
1721884450.562,550.0,
1721884450.587,544.0,
1721884450.612,617.0,
1721884450.6369998,562.0,
1721884450.662,348.0,
1721884450.687,125.0,
1721884450.7120001,37.0,
1721884450.737,73.0,
1721884450.762,103.0,
1721884450.787,41.0,
1721884450.812,-80.0,
1721884450.8370001,-174.0,
1721884450.862,-206.0,
1721884450.887,-207.0,
1721884450.912,-202.0,
1721884450.937,-174.0,
1721884450.9620001,-94.0,
1721884450.987,26.0,
1721884451.012,134.0,
1721884451.037,194.0,
1721884451.062,208.0,
1721884451.087,204.0,
1721884451.112,195.0,
1721884451.1369998,189.0,
1721884451.162,203.0,
1721884451.1869998,257.0,
1721884451.212,339.0,
1721884451.237,394.0,
1721884451.2619998,377.0,
1721884451.287,303.0,
1721884451.3119998,243.0,
1721884451.337,246.0,
1721884451.362,291.0,
1721884451.3869998,324.0,
1721884451.412,333.0,
1721884451.4369998,366.0,
1721884451.462,461.0,
1721884451.487,565.0,
1721884451.512,567.0,
1721884451.537,401.0,
1721884451.562,111.0,
1721884451.587,-193.0,
1721884451.612,-450.0,
1721884451.637,-678.0,
1721884451.662,-909.0,
1721884451.687,0.0,
1721884451.712,0.0,
1721884451.737,-1006.0,
1721884451.762,-721.0,
1721884451.787,-450.0,
1721884451.812,-313.0,
1721884451.837,-313.0,
1721884451.862,-356.0,
1721884451.8869998,-333.0,
1721884451.912,-204.0,
1721884451.9369998,-18.0,
1721884451.962,125.0,
1721884451.9869998,140.0,
1721884452.0119998,22.0,
1721884452.037,-134.0,
1721884452.0619998,-196.0,
1721884452.087,-101.0,
1721884452.1119998,83.0,
1721884452.1369998,217.0,
1721884452.162,219.0,
1721884452.1869998,149.0,
1721884452.212,138.0,
1721884452.2369998,254.0,
1721884452.2619998,434.0,
1721884452.287,558.0,
1721884452.312,570.0,
1721884452.337,513.0,
1721884452.362,461.0,
1721884452.3869998,434.0,
1721884452.412,406.0,
1721884452.437,362.0,
1721884452.462,334.0,
1721884452.487,344.0,
1721884452.5119998,365.0,
1721884452.537,339.0,
1721884452.562,249.0,
1721884452.587,140.0,
1721884452.612,56.0,
1721884452.6369998,-21.0,
1721884452.662,-143.0,
1721884452.687,-316.0,
1721884452.7120001,-451.0,
1721884452.737,-439.0,
1721884452.762,-256.0,
1721884452.787,3.0,
1721884452.812,197.0,
1721884452.8370001,250.0,
1721884452.862,187.0,
1721884452.887,81.0,
1721884452.912,-3.0,
1721884452.937,-34.0,
1721884452.9620001,-5.0,
1721884452.987,74.0,
1721884453.012,174.0,
1721884453.037,249.0,
1721884453.062,264.0,
1721884453.087,214.0,
1721884453.112,127.0,
1721884453.1369998,42.0,
1721884453.162,-17.0,
1721884453.1869998,-48.0,
1721884453.212,-69.0,
1721884453.237,-108.0,
1721884453.2619998,-181.0,
1721884453.287,-283.0,
1721884453.3119998,-383.0,
1721884453.337,-453.0,
1721884453.362,-490.0,
1721884453.3869998,-516.0,
1721884453.412,-559.0,
1721884453.4369998,-637.0,
1721884453.462,-766.0,
1721884453.487,-960.0,
1721884453.512,0.0,
1721884453.537,0.0,
1721884453.562,0.0,
1721884453.587,0.0,
1721884453.612,0.0,
1721884453.637,0.0,
1721884453.662,0.0,
1721884453.687,0.0,
1721884453.712,0.0,
1721884453.737,0.0,
1721884453.762,0.0,
1721884453.787,0.0,
1721884453.812,0.0,
1721884453.837,-394.0,
1721884453.862,690.0,
1721884453.8869998,1023.0,
1721884453.912,1023.0,
1721884453.9369998,1023.0,
1721884453.962,1023.0,
1721884453.9869998,1023.0,
1721884454.0119998,1023.0,
1721884454.037,1023.0,
1721884454.0619998,1023.0,
1721884454.087,1023.0,
1721884454.1119998,1023.0,
1721884454.1369998,1023.0,
1721884454.162,1023.0,
1721884454.1869998,1023.0,
1721884454.212,1023.0,
1721884454.2369998,970.0,
1721884454.2619998,647.0,
1721884454.287,184.0,
1721884454.312,-326.0,
1721884454.337,-735.0,
1721884454.362,-941.0,
1721884454.3869998,-975.0,
1721884454.412,-948.0,
1721884454.437,-941.0,
1721884454.462,-942.0,
1721884454.487,-899.0,
1721884454.5119998,-810.0,
1721884454.537,-732.0,
1721884454.562,-704.0,
1721884454.587,-703.0,
1721884454.612,-671.0,
1721884454.6369998,-592.0,
1721884454.662,-514.0,
1721884454.687,-487.0,
1721884454.7120001,-503.0,
1721884454.737,-514.0,
1721884454.762,-489.0,
1721884454.787,-442.0,
1721884454.812,-408.0,
1721884454.8370001,-390.0,
1721884454.862,-363.0,
1721884454.887,-307.0,
1721884454.912,-234.0,
1721884454.937,-172.0,
1721884454.9620001,-138.0,
1721884454.987,-129.0,
1721884455.012,-140.0,
1721884455.037,-168.0,
1721884455.062,-202.0,
1721884455.087,-217.0,
1721884455.112,-195.0,
1721884455.1369998,-141.0,
1721884455.162,-85.0,
1721884455.1869998,-44.0,
1721884455.212,-6.0,
1721884455.237,50.0,
1721884455.2619998,123.0,
1721884455.287,186.0,
1721884455.3119998,213.0,
1721884455.337,212.0,
1721884455.362,211.0,
1721884455.3869998,230.0,
1721884455.412,253.0,
1721884455.4369998,258.0,
1721884455.462,245.0,
1721884455.487,237.0,
1721884455.512,251.0,
1721884455.537,270.0,
1721884455.562,263.0,
1721884455.587,223.0,
1721884455.612,180.0,
1721884455.637,168.0,
1721884455.662,186.0,
1721884455.687,189.0,
1721884455.712,131.0,
1721884455.737,16.0,
1721884455.762,-109.0,
1721884455.787,-190.0,
1721884455.812,-217.0,
1721884455.837,-218.0,
1721884455.862,-222.0,
1721884455.8869998,-231.0,
1721884455.912,-228.0,
1721884455.9369998,-202.0,
1721884455.962,-163.0,
1721884455.9869998,-133.0,
1721884456.0119998,-121.0,
1721884456.037,-116.0,
1721884456.0619998,-102.0,
1721884456.087,-77.0,
1721884456.1119998,-48.0,
1721884456.1369998,-22.0,
1721884456.162,1.0,
1721884456.1869998,28.0,
1721884456.212,57.0,
1721884456.2369998,78.0,
1721884456.2619998,76.0,
1721884456.287,51.0,
1721884456.312,17.0,
1721884456.337,-7.0,
1721884456.362,-9.0,
1721884456.3869998,5.0,
1721884456.412,22.0,
1721884456.437,28.0,
1721884456.462,25.0,
1721884456.487,17.0,
1721884456.5119998,8.0,
1721884456.537,-1.0,
1721884456.562,-11.0,
1721884456.587,-14.0,
1721884456.612,-5.0,
1721884456.6369998,8.0,
1721884456.662,9.0,
1721884456.687,-11.0,
1721884456.7120001,-38.0,
1721884456.737,-44.0,
1721884456.762,-17.0,
1721884456.787,24.0,
1721884456.812,47.0,
1721884456.8370001,42.0,
1721884456.862,33.0,
1721884456.887,48.0,
1721884456.912,92.0,
1721884456.937,147.0,
1721884456.9620001,199.0,
1721884456.987,251.0,
1721884457.012,304.0,
1721884457.037,332.0,
1721884457.062,294.0,
1721884457.087,186.0,
1721884457.112,54.0,
1721884457.1369998,-32.0,
1721884457.162,-51.0,
1721884457.1869998,-40.0,
1721884457.212,-55.0,
1721884457.237,-108.0,
1721884457.2619998,-156.0,
1721884457.287,-154.0,
1721884457.3119998,-92.0,
1721884457.337,-2.0,
1721884457.362,79.0,
1721884457.3869998,129.0,
1721884457.412,140.0,
1721884457.4369998,113.0,
1721884457.462,68.0,
1721884457.487,45.0,
1721884457.512,66.0,
1721884457.537,109.0,
1721884457.562,110.0,
1721884457.587,28.0,
1721884457.612,-102.0,
1721884457.637,-197.0,
1721884457.662,-199.0,
1721884457.687,-126.0,
1721884457.712,-38.0,
1721884457.737,28.0,
1721884457.762,80.0,
1721884457.787,127.0,
1721884457.812,146.0,
1721884457.837,104.0,
1721884457.862,19.0,
1721884457.8869998,-46.0,
1721884457.912,-48.0,
1721884457.9369998,-25.0,
1721884457.962,-70.0,
1721884457.9869998,-230.0,
1721884458.0119998,-457.0,
1721884458.037,-654.0,
1721884458.0619998,-766.0,
1721884458.087,-816.0,
1721884458.1119998,-845.0,
1721884458.1369998,-861.0,
1721884458.162,-839.0,
1721884458.1869998,-781.0,
1721884458.212,-720.0,
1721884458.2369998,-686.0,
1721884458.2619998,-656.0,
1721884458.287,-586.0,
1721884458.312,-470.0,
1721884458.337,-359.0,
1721884458.362,-299.0,
1721884458.3869998,-263.0,
1721884458.412,-173.0,
1721884458.437,14.0,
1721884458.462,254.0,
1721884458.487,468.0,
1721884458.5119998,641.0,
1721884458.537,850.0,
1721884458.562,1023.0,
1721884458.587,1023.0,
1721884458.612,1023.0,
1721884458.6369998,1023.0,
1721884458.662,1023.0,
1721884458.687,1023.0,
1721884458.7120001,1023.0,
1721884458.737,1023.0,
1721884458.762,877.0,
1721884458.787,544.0,
1721884458.812,285.0,
1721884458.8370001,84.0,
1721884458.862,-103.0,
1721884458.887,-301.0,
1721884458.912,-487.0,
1721884458.937,-610.0,
1721884458.9620001,-649.0,
1721884458.987,-637.0,
1721884459.012,-631.0,
1721884459.037,-652.0,
1721884459.062,-672.0,
1721884459.087,-652.0,
1721884459.112,-594.0,
1721884459.1369998,-541.0,
1721884459.162,-532.0,
1721884459.1869998,-556.0,
1721884459.212,-563.0,
1721884459.237,-515.0,
1721884459.2619998,-428.0,
1721884459.287,-345.0,
1721884459.3119998,-294.0,
1721884459.337,-260.0,
1721884459.362,-208.0,
1721884459.3869998,-125.0,
1721884459.412,-40.0,
1721884459.4369998,12.0,
1721884459.462,21.0,
1721884459.487,10.0,
1721884459.512,9.0,
1721884459.537,23.0,
1721884459.562,40.0,
1721884459.587,51.0,
1721884459.612,61.0,
1721884459.637,82.0,
1721884459.662,112.0,
1721884459.687,140.0,
1721884459.712,156.0,
1721884459.737,165.0,
1721884459.762,174.0,
1721884459.787,184.0,
1721884459.812,187.0,
1721884459.837,181.0,
1721884459.862,174.0,
1721884459.8869998,175.0,
1721884459.912,172.0,
1721884459.9369998,144.0,
1721884459.962,77.0,
1721884459.9869998,-12.0,
1721884460.0119998,-91.0,
1721884460.037,-146.0,
1721884460.0619998,-185.0,
1721884460.087,-223.0,
1721884460.1119998,-257.0,
1721884460.1369998,-269.0,
1721884460.162,-250.0,
1721884460.1869998,-209.0,
1721884460.212,-162.0,
1721884460.2369998,-108.0,
1721884460.2619998,-37.0,
1721884460.287,46.0,
1721884460.312,111.0,
1721884460.337,134.0,
1721884460.362,117.0,
1721884460.3869998,94.0,
1721884460.412,90.0,
1721884460.437,99.0,
1721884460.462,102.0,
1721884460.487,96.0,
1721884460.5119998,96.0,
1721884460.537,112.0,
1721884460.562,126.0,
1721884460.587,113.0,
1721884460.612,78.0,
1721884460.6369998,53.0,
1721884460.662,58.0,
1721884460.687,67.0,
1721884460.7120001,41.0,
1721884460.737,-19.0,
1721884460.762,-57.0,
1721884460.787,-22.0,
1721884460.812,63.0,
1721884460.8370001,120.0,
1721884460.862,86.0,
1721884460.887,-19.0,
1721884460.912,-119.0,
1721884460.937,-161.0,
1721884460.9620001,-165.0,
1721884460.987,-177.0,
1721884461.012,-212.0,
1721884461.037,-238.0,
1721884461.062,-225.0,
1721884461.087,-186.0,
1721884461.112,-157.0,
1721884461.1369998,-157.0,
1721884461.162,-168.0,
1721884461.1869998,-168.0,
1721884461.212,-163.0,
1721884461.237,-175.0,
1721884461.2619998,-209.0,
1721884461.287,-240.0,
1721884461.3119998,-245.0,
1721884461.337,-230.0,
1721884461.362,-221.0,
1721884461.3869998,-230.0,
1721884461.412,-243.0,
1721884461.4369998,-239.0,
1721884461.462,-218.0,
1721884461.487,-199.0,
1721884461.512,-192.0,
1721884461.537,-188.0,
1721884461.562,-169.0,
1721884461.587,-121.0,
1721884461.612,-31.0,
1721884461.637,113.0,
1721884461.662,314.0,
1721884461.687,532.0,
1721884461.712,699.0,
1721884461.737,758.0,
1721884461.762,716.0,
1721884461.787,638.0,
1721884461.812,594.0,
1721884461.837,606.0,
1721884461.862,646.0,
1721884461.8869998,675.0,
1721884461.912,672.0,
1721884461.9369998,635.0,
1721884461.962,561.0,
1721884461.9869998,458.0,
1721884462.0119998,347.0,
1721884462.037,257.0,
1721884462.0619998,192.0,
1721884462.087,120.0,
1721884462.1119998,4.0,
1721884462.1369998,-156.0,
1721884462.162,-307.0,
1721884462.1869998,-393.0,
1721884462.212,-404.0,
1721884462.2369998,-380.0,
1721884462.2619998,-365.0,
1721884462.287,-368.0,
1721884462.312,-370.0,
1721884462.337,-357.0,
1721884462.362,-338.0,
1721884462.3869998,-328.0,
1721884462.412,-326.0,
1721884462.437,-310.0,
1721884462.462,-261.0,
1721884462.487,-181.0,
1721884462.5119998,-92.0,
1721884462.537,-18.0,
1721884462.562,28.0,
1721884462.587,38.0,
1721884462.612,17.0,
1721884462.6369998,-22.0,
1721884462.662,-63.0,
1721884462.687,-92.0,
1721884462.7120001,-110.0,
1721884462.737,-121.0,
1721884462.762,-123.0,
1721884462.787,-104.0,
1721884462.812,-61.0,
1721884462.8370001,-9.0,
1721884462.862,26.0,
1721884462.887,33.0,
1721884462.912,22.0,
1721884462.937,13.0,
1721884462.9620001,15.0,
1721884462.987,19.0,
1721884463.012,16.0,
1721884463.037,4.0,
1721884463.062,-7.0,
1721884463.087,-15.0,
1721884463.112,-20.0,
1721884463.1369998,-29.0,
1721884463.162,-41.0,
1721884463.1869998,-53.0,
1721884463.212,-66.0,
1721884463.237,-78.0,
1721884463.2619998,-84.0,
1721884463.287,-73.0,
1721884463.3119998,-43.0,
1721884463.337,-3.0,
1721884463.362,29.0,
1721884463.3869998,45.0,
1721884463.412,52.0,
1721884463.4369998,61.0,
1721884463.462,75.0,
1721884463.487,86.0,
1721884463.512,88.0,
1721884463.537,83.0,
1721884463.562,81.0,
1721884463.587,86.0,
1721884463.612,91.0,
1721884463.637,90.0,
1721884463.662,82.0,
1721884463.687,72.0,
1721884463.712,64.0,
1721884463.737,58.0,
1721884463.762,49.0,
1721884463.787,39.0,
1721884463.812,30.0,
1721884463.837,21.0,
1721884463.862,13.0,
1721884463.8869998,3.0,
1721884463.912,-9.0,
1721884463.9369998,-20.0,
1721884463.962,-31.0,
1721884463.9869998,-43.0,
1721884464.0119998,-54.0,
1721884464.037,-62.0,
1721884464.0619998,-69.0,
1721884464.087,-77.0,
1721884464.1119998,-89.0,
1721884464.1369998,-101.0,
1721884464.162,-100.0,
1721884464.1869998,-78.0,
1721884464.212,-39.0,
1721884464.2369998,-1.0,
1721884464.2619998,24.0,
1721884464.287,35.0,
1721884464.312,41.0,
1721884464.337,51.0,
1721884464.362,63.0,
1721884464.3869998,70.0,
1721884464.412,70.0,
1721884464.437,66.0,
1721884464.462,65.0,
1721884464.487,68.0,
1721884464.5119998,70.0,
1721884464.537,67.0,
1721884464.562,59.0,
1721884464.587,50.0,
1721884464.612,42.0,
1721884464.6369998,32.0,
1721884464.662,20.0,
1721884464.687,8.0,
1721884464.7120001,0.0,
1721884464.737,-5.0,
1721884464.762,-11.0,
1721884464.787,-19.0,
1721884464.812,-31.0,
1721884464.8370001,-40.0,
1721884464.862,-46.0,
1721884464.887,-54.0,
1721884464.912,-67.0,
1721884464.937,-83.0,
1721884464.9620001,-93.0,
1721884464.987,-86.0,
1721884465.012,-62.0,
1721884465.037,-31.0,
1721884465.062,-5.0,
1721884465.087,9.0,
1721884465.112,16.0,
1721884465.1369998,21.0,
1721884465.162,28.0,
1721884465.1869998,34.0,
1721884465.212,36.0,
1721884465.237,35.0,
1721884465.2619998,34.0,
1721884465.287,36.0,
1721884465.3119998,39.0,
1721884465.337,39.0,
1721884465.362,34.0,
1721884465.3869998,28.0,
1721884465.412,21.0,
1721884465.4369998,15.0,
1721884465.462,9.0,
1721884465.487,3.0,
1721884465.512,-4.0,
1721884465.537,-10.0,
1721884465.562,-18.0,
1721884465.587,-27.0,
1721884465.612,-37.0,
1721884465.637,-46.0,
1721884465.662,-53.0,
1721884465.687,-59.0,
1721884465.712,-71.0,
1721884465.737,-86.0,
1721884465.762,-97.0,
1721884465.787,-91.0,
1721884465.812,-65.0,
1721884465.837,-28.0,
1721884465.862,5.0,
1721884465.8869998,25.0,
1721884465.912,35.0,
1721884465.9369998,42.0,
1721884465.962,52.0,
1721884465.9869998,62.0,
1721884466.0119998,66.0,
1721884466.037,64.0,
1721884466.0619998,59.0,
1721884466.087,57.0,
1721884466.1119998,58.0,
1721884466.1369998,58.0,
1721884466.162,52.0,
1721884466.1869998,43.0,
1721884466.212,33.0,
1721884466.2369998,24.0,
1721884466.2619998,15.0,
1721884466.287,7.0,
1721884466.312,0.0,
1721884466.337,-7.0,
1721884466.362,-13.0,
1721884466.3869998,-21.0,
1721884466.412,-33.0,
1721884466.437,-44.0,
1721884466.462,-52.0,
1721884466.487,-58.0,
1721884466.5119998,-68.0,
1721884466.537,-83.0,
1721884466.562,-97.0,
1721884466.587,-97.0,
1721884466.612,-77.0,
1721884466.6369998,-42.0,
1721884466.662,-7.0,
1721884466.687,15.0,
1721884466.7120001,24.0,
1721884466.737,28.0,
1721884466.762,37.0,
1721884466.787,48.0,
1721884466.812,56.0,
1721884466.8370001,56.0,
1721884466.862,52.0,
1721884466.887,50.0,
1721884466.912,53.0,
1721884466.937,57.0,
1721884466.9620001,56.0,
1721884466.987,50.0,
1721884467.012,43.0,
1721884467.037,37.0,
1721884467.062,32.0,
1721884467.087,23.0,
1721884467.112,12.0,
1721884467.1369998,2.0,
1721884467.162,-6.0,
1721884467.1869998,-13.0,
1721884467.212,-22.0,
1721884467.237,-33.0,
1721884467.2619998,-44.0,
1721884467.287,-50.0,
1721884467.3119998,-56.0,
1721884467.337,-68.0,
1721884467.362,-83.0,
1721884467.3869998,-93.0,
1721884467.412,-85.0,
1721884467.4369998,-57.0,
1721884467.462,-21.0,
1721884467.487,7.0,
1721884467.512,21.0,
1721884467.537,25.0,
1721884467.562,29.0,
1721884467.587,35.0,
1721884467.612,41.0,
1721884467.637,42.0,
1721884467.662,39.0,
1721884467.687,37.0,
1721884467.712,39.0,
1721884467.737,42.0,
1721884467.762,43.0,
1721884467.787,40.0,
1721884467.812,35.0,
1721884467.837,29.0,
1721884467.862,22.0,
1721884467.8869998,13.0,
1721884467.912,4.0,
1721884467.9369998,-3.0,
1721884467.962,-10.0,
1721884467.9869998,-18.0,
1721884468.0119998,-27.0,
1721884468.037,-35.0,
1721884468.0619998,-42.0,
1721884468.087,-50.0,
1721884468.1119998,-63.0,
1721884468.1369998,-75.0,
1721884468.162,-78.0,
1721884468.1869998,-62.0,
1721884468.212,-32.0,
1721884468.2369998,1.0,
1721884468.2619998,22.0,
1721884468.287,30.0,
1721884468.312,30.0,
1721884468.337,33.0,
1721884468.362,37.0,
1721884468.3869998,40.0,
1721884468.412,40.0,
1721884468.437,38.0,
1721884468.462,38.0,
1721884468.487,40.0,
1721884468.5119998,40.0,
1721884468.537,37.0,
1721884468.562,31.0,
1721884468.587,24.0,
1721884468.612,17.0,
1721884468.6369998,9.0,
1721884468.662,0.0,
1721884468.687,-9.0,
1721884468.7120001,-19.0,
1721884468.737,-28.0,
1721884468.762,-38.0,
1721884468.787,-47.0,
1721884468.812,-53.0,
1721884468.8370001,-60.0,
1721884468.862,-71.0,
1721884468.887,-85.0,
1721884468.912,-91.0,
1721884468.937,-79.0,
1721884468.9620001,-48.0,
1721884468.987,-9.0,
1721884469.012,21.0,
1721884469.037,34.0,
1721884469.062,37.0,
1721884469.087,40.0,
1721884469.112,48.0,
1721884469.1369998,56.0,
1721884469.162,57.0,
1721884469.1869998,52.0,
1721884469.212,49.0,
1721884469.237,49.0,
1721884469.2619998,51.0,
1721884469.287,49.0,
1721884469.3119998,42.0,
1721884469.337,34.0,
1721884469.362,27.0,
1721884469.3869998,21.0,
1721884469.412,13.0,
1721884469.4369998,4.0,
1721884469.462,-5.0,
1721884469.487,-12.0,
1721884469.512,-20.0,
1721884469.537,-30.0,
1721884469.562,-42.0,
1721884469.587,-51.0,
1721884469.612,-57.0,
1721884469.637,-64.0,
1721884469.662,-78.0,
1721884469.687,-92.0,
1721884469.712,-97.0,
1721884469.737,-81.0,
1721884469.762,-46.0,
1721884469.787,-8.0,
1721884469.812,19.0,
1721884469.837,30.0,
1721884469.862,32.0,
1721884469.8869998,37.0,
1721884469.912,44.0,
1721884469.9369998,50.0,
1721884469.962,50.0,
1721884469.9869998,47.0,
1721884470.0119998,46.0,
1721884470.037,49.0,
1721884470.0619998,52.0,
1721884470.087,50.0,
1721884470.1119998,44.0,
1721884470.1369998,36.0,
1721884470.162,29.0,
1721884470.1869998,22.0,
1721884470.212,13.0,
1721884470.2369998,3.0,
1721884470.2619998,-6.0,
1721884470.287,-11.0,
1721884470.312,-17.0,
1721884470.337,-27.0,
1721884470.362,-39.0,
1721884470.3869998,-49.0,
1721884470.412,-54.0,
1721884470.437,-60.0,
1721884470.462,-71.0,
1721884470.487,-87.0,
1721884470.5119998,-95.0,
1721884470.537,-85.0,
1721884470.562,-54.0,
1721884470.587,-15.0,
1721884470.612,15.0,
1721884470.6369998,30.0,
1721884470.662,34.0,
1721884470.687,37.0,
1721884470.7120001,43.0,
1721884470.737,50.0,
1721884470.762,52.0,
1721884470.787,51.0,
1721884470.812,49.0,
1721884470.8370001,52.0,
1721884470.862,56.0,
1721884470.887,57.0,
1721884470.912,53.0,
1721884470.937,45.0,
1721884470.9620001,37.0,
1721884470.987,31.0,
1721884471.012,24.0,
1721884471.037,17.0,
1721884471.062,9.0,
1721884471.087,1.0,
1721884471.112,-8.0,
1721884471.1369998,-20.0,
1721884471.162,-33.0,
1721884471.1869998,-45.0,
1721884471.212,-53.0,
1721884471.237,-58.0,
1721884471.2619998,-64.0,
1721884471.287,-75.0,
1721884471.3119998,-89.0,
1721884471.337,-97.0,
1721884471.362,-88.0,
1721884471.3869998,-61.0,
1721884471.412,-24.0,
1721884471.4369998,8.0,
1721884471.462,26.0,
1721884471.487,32.0,
1721884471.512,34.0,
1721884471.537,39.0,
1721884471.562,46.0,
1721884471.587,50.0,
1721884471.612,49.0,
1721884471.637,47.0,
1721884471.662,47.0,
1721884471.687,50.0,
1721884471.712,51.0,
1721884471.737,46.0,
1721884471.762,38.0,
1721884471.787,31.0,
1721884471.812,26.0,
1721884471.837,20.0,
1721884471.862,12.0,
1721884471.8869998,2.0,
1721884471.912,-6.0,
1721884471.9369998,-10.0,
1721884471.962,-15.0,
1721884471.9869998,-24.0,
1721884472.0119998,-35.0,
1721884472.037,-45.0,
1721884472.0619998,-51.0,
1721884472.087,-57.0,
1721884472.1119998,-69.0,
1721884472.1369998,-85.0,
1721884472.162,-94.0,
1721884472.1869998,-85.0,
1721884472.212,-54.0,
1721884472.2369998,-15.0,
1721884472.2619998,17.0,
1721884472.287,33.0,
1721884472.312,38.0,
1721884472.337,39.0,
1721884472.362,42.0,
1721884472.3869998,45.0,
1721884472.412,45.0,
1721884472.437,43.0,
1721884472.462,42.0,
1721884472.487,42.0,
1721884472.5119998,44.0,
1721884472.537,43.0,
1721884472.562,39.0,
1721884472.587,32.0,
1721884472.612,24.0,
1721884472.6369998,15.0,
1721884472.662,7.0,
1721884472.687,0.0,
1721884472.7120001,-7.0,
1721884472.737,-16.0,
1721884472.762,-25.0,
1721884472.787,-33.0,
1721884472.812,-40.0,
1721884472.8370001,-47.0,
1721884472.862,-59.0,
1721884472.887,-75.0,
1721884472.912,-84.0,
1721884472.937,-77.0,
1721884472.9620001,-49.0,
1721884472.987,-12.0,
1721884473.012,19.0,
1721884473.037,34.0,
1721884473.062,37.0,
1721884473.087,37.0,
1721884473.112,41.0,
1721884473.1369998,45.0,
1721884473.162,45.0,
1721884473.1869998,43.0,
1721884473.212,41.0,
1721884473.237,42.0,
1721884473.2619998,44.0,
1721884473.287,43.0,
1721884473.3119998,37.0,
1721884473.337,30.0,
1721884473.362,22.0,
1721884473.3869998,14.0,
1721884473.412,5.0,
1721884473.4369998,-4.0,
1721884473.462,-12.0,
1721884473.487,-20.0,
1721884473.512,-28.0,
1721884473.537,-38.0,
1721884473.562,-47.0,
1721884473.587,-55.0,
1721884473.612,-62.0,
1721884473.637,-74.0,
1721884473.662,-90.0,
1721884473.687,-97.0,
1721884473.712,-85.0,
1721884473.737,-51.0,
1721884473.762,-10.0,
1721884473.787,23.0,
1721884473.812,37.0,
1721884473.837,39.0,
1721884473.862,41.0,
1721884473.8869998,49.0,
1721884473.912,56.0,
1721884473.9369998,58.0,
1721884473.962,55.0,
1721884473.9869998,51.0,
1721884474.0119998,52.0,
1721884474.037,54.0,
1721884474.0619998,53.0,
1721884474.087,46.0,
1721884474.1119998,37.0,
1721884474.1369998,29.0,
1721884474.162,23.0,
1721884474.1869998,14.0,
1721884474.212,3.0,
1721884474.2369998,-7.0,
1721884474.2619998,-16.0,
1721884474.287,-24.0,
1721884474.312,-35.0,
1721884474.337,-46.0,
1721884474.362,-55.0,
1721884474.3869998,-60.0,
1721884474.412,-66.0,
1721884474.437,-78.0,
1721884474.462,-94.0,
1721884474.487,-103.0,
1721884474.5119998,-94.0,
1721884474.537,-63.0,
1721884474.562,-22.0,
1721884474.587,12.0,
1721884474.612,30.0,
1721884474.6369998,38.0,
1721884474.662,42.0,
1721884474.687,49.0,
1721884474.7120001,56.0,
1721884474.737,59.0,
1721884474.762,56.0,
1721884474.787,53.0,
1721884474.812,53.0,
1721884474.8370001,56.0,
1721884474.862,57.0,
1721884474.887,53.0,
1721884474.912,44.0,
1721884474.937,34.0,
1721884474.9620001,25.0,
1721884474.987,19.0,
1721884475.012,12.0,
1721884475.037,4.0,
1721884475.062,-4.0,
1721884475.087,-10.0,
1721884475.112,-16.0,
1721884475.1369998,-22.0,
1721884475.162,-32.0,
1721884475.1869998,-42.0,
1721884475.212,-51.0,
1721884475.237,-57.0,
1721884475.2619998,-66.0,
1721884475.287,-80.0,
1721884475.3119998,-97.0,
1721884475.337,-102.0,
1721884475.362,-87.0,
1721884475.3869998,-52.0,
1721884475.412,-10.0,
1721884475.4369998,22.0,
1721884475.462,37.0,
1721884475.487,41.0,
1721884475.512,44.0,
1721884475.537,50.0,
1721884475.562,57.0,
1721884475.587,59.0,
1721884475.612,56.0,
1721884475.637,54.0,
1721884475.662,54.0,
1721884475.687,55.0,
1721884475.712,54.0,
1721884475.737,47.0,
1721884475.762,38.0,
1721884475.787,31.0,
1721884475.812,25.0,
1721884475.837,20.0,
1721884475.862,13.0,
1721884475.8869998,4.0,
1721884475.912,-5.0,
1721884475.9369998,-13.0,
1721884475.962,-20.0,
1721884475.9869998,-29.0,
1721884476.0119998,-39.0,
1721884476.037,-50.0,
1721884476.0619998,-59.0,
1721884476.087,-65.0,
1721884476.1119998,-73.0,
1721884476.1369998,-86.0,
1721884476.162,-101.0,
1721884476.1869998,-109.0,
1721884476.212,-98.0,
1721884476.2369998,-65.0,
1721884476.2619998,-22.0,
1721884476.287,14.0,
1721884476.312,33.0,
1721884476.337,39.0,
1721884476.362,42.0,
1721884476.3869998,49.0,
1721884476.412,58.0,
1721884476.437,63.0,
1721884476.462,61.0,
1721884476.487,58.0,
1721884476.5119998,59.0,
1721884476.537,63.0,
1721884476.562,65.0,
1721884476.587,59.0,
1721884476.612,50.0,
1721884476.6369998,42.0,
1721884476.662,35.0,
1721884476.687,27.0,
1721884476.7120001,15.0,
1721884476.737,4.0,
1721884476.762,-4.0,
1721884476.787,-9.0,
1721884476.812,-16.0,
1721884476.8370001,-28.0,
1721884476.862,-40.0,
1721884476.887,-48.0,
1721884476.912,-53.0,
1721884476.937,-61.0,
1721884476.9620001,-76.0,
1721884476.987,-93.0,
1721884477.012,-95.0,
1721884477.037,-72.0,
1721884477.062,-34.0,
1721884477.087,4.0,
1721884477.112,26.0,
1721884477.1369998,33.0,
1721884477.162,33.0,
1721884477.1869998,35.0,
1721884477.212,39.0,
1721884477.237,41.0,
1721884477.2619998,40.0,
1721884477.287,39.0,
1721884477.3119998,39.0,
1721884477.337,41.0,
1721884477.362,41.0,
1721884477.3869998,37.0,
1721884477.412,30.0,
1721884477.4369998,22.0,
1721884477.462,13.0,
1721884477.487,5.0,
1721884477.512,-4.0,
1721884477.537,-12.0,
1721884477.562,-21.0,
1721884477.587,-31.0,
1721884477.612,-40.0,
1721884477.637,-48.0,
1721884477.662,-54.0,
1721884477.687,-63.0,
1721884477.712,-77.0,
1721884477.737,-89.0,
1721884477.762,-89.0,
1721884477.787,-68.0,
1721884477.812,-31.0,
1721884477.837,6.0,
1721884477.862,29.0,
1721884477.8869998,38.0,
1721884477.912,42.0,
1721884477.9369998,49.0,
1721884477.962,56.0,
1721884477.9869998,59.0,
1721884478.0119998,55.0,
1721884478.037,51.0,
1721884478.0619998,51.0,
1721884478.087,55.0,
1721884478.1119998,56.0,
1721884478.1369998,51.0,
1721884478.162,43.0,
1721884478.1869998,34.0,
1721884478.212,27.0,
1721884478.2369998,19.0,
1721884478.2619998,9.0,
1721884478.287,-1.0,
1721884478.312,-10.0,
1721884478.337,-17.0,
1721884478.362,-27.0,
1721884478.3869998,-40.0,
1721884478.412,-52.0,
1721884478.437,-61.0,
1721884478.462,-71.0,
1721884478.487,-86.0,
1721884478.5119998,-102.0,
1721884478.537,-107.0,
1721884478.562,-89.0,
1721884478.587,-50.0,
1721884478.612,-8.0,
1721884478.6369998,21.0,
1721884478.662,32.0,
1721884478.687,35.0,
1721884478.7120001,42.0,
1721884478.737,53.0,
1721884478.762,60.0,
1721884478.787,60.0,
1721884478.812,55.0,
1721884478.8370001,53.0,
1721884478.862,55.0,
1721884478.887,58.0,
1721884478.912,56.0,
1721884478.937,47.0,
1721884478.9620001,38.0,
1721884478.987,29.0,
1721884479.012,21.0,
1721884479.037,10.0,
1721884479.062,-1.0,
1721884479.087,-10.0,
1721884479.112,-18.0,
1721884479.1369998,-25.0,
1721884479.162,-36.0,
1721884479.1869998,-49.0,
1721884479.212,-59.0,
1721884479.237,-66.0,
1721884479.2619998,-75.0,
1721884479.287,-90.0,
1721884479.3119998,-107.0,
1721884479.337,-111.0,
1721884479.362,-91.0,
1721884479.3869998,-52.0,
1721884479.412,-9.0,
1721884479.4369998,22.0,
1721884479.462,36.0,
1721884479.487,41.0,
1721884479.512,47.0,
1721884479.537,56.0,
1721884479.562,63.0,
1721884479.587,63.0,
1721884479.612,58.0,
1721884479.637,56.0,
1721884479.662,59.0,
1721884479.687,62.0,
1721884479.712,61.0,
1721884479.737,54.0,
1721884479.762,45.0,
1721884479.787,36.0,
1721884479.812,27.0,
1721884479.837,17.0,
1721884479.862,6.0,
1721884479.8869998,-5.0,
1721884479.912,-12.0,
1721884479.9369998,-19.0,
1721884479.962,-29.0,
1721884479.9869998,-42.0,
1721884480.0119998,-54.0,
1721884480.037,-61.0,
1721884480.0619998,-68.0,
1721884480.087,-81.0,
1721884480.1119998,-98.0,
1721884480.1369998,-112.0,
1721884480.162,-107.0,
1721884480.1869998,-78.0,
1721884480.212,-35.0,
1721884480.2369998,4.0,
1721884480.2619998,27.0,
1721884480.287,36.0,
1721884480.312,41.0,
1721884480.337,47.0,
1721884480.362,56.0,
1721884480.3869998,59.0,
1721884480.412,58.0,
1721884480.437,55.0,
1721884480.462,56.0,
1721884480.487,61.0,
1721884480.5119998,64.0,
1721884480.537,60.0,
1721884480.562,51.0,
1721884480.587,42.0,
1721884480.612,36.0,
1721884480.6369998,29.0,
1721884480.662,20.0,
1721884480.687,9.0,
1721884480.7120001,0.0,
1721884480.737,-8.0,
1721884480.762,-15.0,
1721884480.787,-25.0,
1721884480.812,-37.0,
1721884480.8370001,-47.0,
1721884480.862,-54.0,
1721884480.887,-60.0,
1721884480.912,-74.0,
1721884480.937,-94.0,
1721884480.9620001,-107.0,
1721884480.987,-101.0,
1721884481.012,-71.0,
1721884481.037,-29.0,
1721884481.062,7.0,
1721884481.087,26.0,
1721884481.112,33.0,
1721884481.1369998,37.0,
1721884481.162,42.0,
1721884481.1869998,47.0,
1721884481.212,50.0,
1721884481.237,49.0,
1721884481.2619998,49.0,
1721884481.287,50.0,
1721884481.3119998,51.0,
1721884481.337,50.0,
1721884481.362,46.0,
1721884481.3869998,38.0,
1721884481.412,29.0,
1721884481.4369998,19.0,
1721884481.462,9.0,
1721884481.487,1.0,
1721884481.512,-7.0,
1721884481.537,-18.0,
1721884481.562,-29.0,
1721884481.587,-40.0,
1721884481.612,-47.0,
1721884481.637,-55.0,
1721884481.662,-67.0,
1721884481.687,-83.0,
1721884481.712,-93.0,
1721884481.737,-85.0,
1721884481.762,-54.0,
1721884481.787,-14.0,
1721884481.812,20.0,
1721884481.837,37.0,
1721884481.862,41.0,
1721884481.8869998,43.0,
1721884481.912,47.0,
1721884481.9369998,52.0,
1721884481.962,52.0,
1721884481.9869998,48.0,
1721884482.0119998,47.0,
1721884482.037,48.0,
1721884482.0619998,50.0,
1721884482.087,48.0,
1721884482.1119998,41.0,
1721884482.1369998,32.0,
1721884482.162,23.0,
1721884482.1869998,13.0,
1721884482.212,3.0,
1721884482.2369998,-7.0,
1721884482.2619998,-16.0,
1721884482.287,-26.0,
1721884482.312,-38.0,
1721884482.337,-49.0,
1721884482.362,-58.0,
1721884482.3869998,-67.0,
1721884482.412,-79.0,
1721884482.437,-95.0,
1721884482.462,-110.0,
1721884482.487,-106.0,
1721884482.5119998,-79.0,
1721884482.537,-34.0,
1721884482.562,7.0,
1721884482.587,31.0,
1721884482.612,39.0,
1721884482.6369998,43.0,
1721884482.662,51.0,
1721884482.687,59.0,
1721884482.7120001,63.0,
1721884482.737,59.0,
1721884482.762,55.0,
1721884482.787,55.0,
1721884482.812,58.0,
1721884482.8370001,58.0,
1721884482.862,52.0,
1721884482.887,43.0,
1721884482.912,33.0,
1721884482.937,24.0,
1721884482.9620001,14.0,
1721884482.987,4.0,
1721884483.012,-6.0,
1721884483.037,-14.0,
1721884483.062,-25.0,
1721884483.087,-38.0,
1721884483.112,-50.0,
1721884483.1369998,-58.0,
1721884483.162,-65.0,
1721884483.1869998,-76.0,
1721884483.212,-94.0,
1721884483.237,-106.0,
1721884483.2619998,-97.0,
1721884483.287,-63.0,
1721884483.3119998,-16.0,
1721884483.337,21.0,
1721884483.362,38.0,
1721884483.3869998,42.0,
1721884483.412,45.0,
1721884483.4369998,54.0,
1721884483.462,62.0,
1721884483.487,62.0,
1721884483.512,56.0,
1721884483.537,52.0,
1721884483.562,54.0,
1721884483.587,57.0,
1721884483.612,55.0,
1721884483.637,47.0,
1721884483.662,37.0,
1721884483.687,28.0,
1721884483.712,20.0,
1721884483.737,9.0,
1721884483.762,-2.0,
1721884483.787,-11.0,
1721884483.812,-19.0,
1721884483.837,-28.0,
1721884483.862,-41.0,
1721884483.8869998,-54.0,
1721884483.912,-62.0,
1721884483.9369998,-68.0,
1721884483.962,-79.0,
1721884483.9869998,-96.0,
1721884484.0119998,-109.0,
1721884484.037,-102.0,
1721884484.0619998,-68.0,
1721884484.087,-22.0,
1721884484.1119998,16.0,
1721884484.1369998,36.0,
1721884484.162,41.0,
1721884484.1869998,45.0,
1721884484.212,53.0,
1721884484.2369998,60.0,
1721884484.2619998,61.0,
1721884484.287,59.0,
1721884484.312,58.0,
1721884484.337,60.0,
1721884484.362,62.0,
1721884484.3869998,59.0,
1721884484.412,52.0,
1721884484.437,43.0,
1721884484.462,34.0,
1721884484.487,24.0,
1721884484.5119998,13.0,
1721884484.537,2.0,
1721884484.562,-7.0,
1721884484.587,-15.0,
1721884484.612,-26.0,
1721884484.6369998,-38.0,
1721884484.662,-50.0,
1721884484.687,-58.0,
1721884484.7120001,-66.0,
1721884484.737,-78.0,
1721884484.762,-95.0,
1721884484.787,-105.0,
1721884484.812,-95.0,
1721884484.8370001,-63.0,
1721884484.862,-19.0,
1721884484.887,15.0,
1721884484.912,31.0,
1721884484.937,34.0,
1721884484.9620001,34.0,
1721884484.987,37.0,
1721884485.012,41.0,
1721884485.037,42.0,
1721884485.062,39.0,
1721884485.087,38.0,
1721884485.112,40.0,
1721884485.1369998,44.0,
1721884485.162,45.0,
1721884485.1869998,40.0,
1721884485.212,29.0,
1721884485.237,19.0,
1721884485.2619998,11.0,
1721884485.287,5.0,
1721884485.3119998,-4.0,
1721884485.337,-14.0,
1721884485.362,-24.0,
1721884485.3869998,-31.0,
1721884485.412,-36.0,
1721884485.4369998,-44.0,
1721884485.462,-59.0,
1721884485.487,-76.0,
1721884485.512,-83.0,
1721884485.537,-72.0,
1721884485.562,-40.0,
1721884485.587,-1.0,
1721884485.612,32.0,
1721884485.637,48.0,
1721884485.662,52.0,
1721884485.687,52.0,
1721884485.712,52.0,
1721884485.737,53.0,
1721884485.762,53.0,
1721884485.787,50.0,
1721884485.812,47.0,
1721884485.837,46.0,
1721884485.862,45.0,
1721884485.8869998,42.0,
1721884485.912,33.0,
1721884485.9369998,22.0,
1721884485.962,10.0,
1721884485.9869998,0.0,
1721884486.0119998,-8.0,
1721884486.037,-17.0,
1721884486.0619998,-29.0,
1721884486.087,-42.0,
1721884486.1119998,-51.0,
1721884486.1369998,-57.0,
1721884486.162,-65.0,
1721884486.1869998,-79.0,
1721884486.212,-96.0,
1721884486.2369998,-107.0,
1721884486.2619998,-96.0,
1721884486.287,-62.0,
1721884486.312,-18.0,
1721884486.337,20.0,
1721884486.362,40.0,
1721884486.3869998,46.0,
1721884486.412,48.0,
1721884486.437,53.0,
1721884486.462,57.0,
1721884486.487,57.0,
1721884486.5119998,52.0,
1721884486.537,49.0,
1721884486.562,49.0,
1721884486.587,51.0,
1721884486.612,50.0,
1721884486.6369998,43.0,
1721884486.662,33.0,
1721884486.687,22.0,
1721884486.7120001,12.0,
1721884486.737,2.0,
1721884486.762,-8.0,
1721884486.787,-17.0,
1721884486.812,-27.0,
1721884486.8370001,-38.0,
1721884486.862,-49.0,
1721884486.887,-59.0,
1721884486.912,-66.0,
1721884486.937,-77.0,
1721884486.9620001,-93.0,
1721884486.987,-108.0,
1721884487.012,-110.0,
1721884487.037,-85.0,
1721884487.062,-41.0,
1721884487.087,6.0,
1721884487.112,35.0,
1721884487.1369998,46.0,
1721884487.162,48.0,
1721884487.1869998,53.0,
1721884487.212,62.0,
1721884487.237,68.0,
1721884487.2619998,65.0,
1721884487.287,58.0,
1721884487.3119998,56.0,
1721884487.337,58.0,
1721884487.362,60.0,
1721884487.3869998,55.0,
1721884487.412,46.0,
1721884487.4369998,37.0,
1721884487.462,29.0,
1721884487.487,20.0,
1721884487.512,8.0,
1721884487.537,-3.0,
1721884487.562,-12.0,
1721884487.587,-19.0,
1721884487.612,-29.0,
1721884487.637,-42.0,
1721884487.662,-56.0,
1721884487.687,-65.0,
1721884487.712,-72.0,
1721884487.737,-83.0,
1721884487.762,-102.0,
1721884487.787,-116.0,
1721884487.812,-112.0,
1721884487.837,-81.0,
1721884487.862,-33.0,
1721884487.8869998,10.0,
1721884487.912,37.0,
1721884487.9369998,47.0,
1721884487.962,51.0,
1721884487.9869998,58.0,
1721884488.0119998,66.0,
1721884488.037,70.0,
1721884488.0619998,67.0,
1721884488.087,63.0,
1721884488.1119998,62.0,
1721884488.1369998,65.0,
1721884488.162,68.0,
1721884488.1869998,64.0,
1721884488.212,53.0,
1721884488.2369998,41.0,
1721884488.2619998,31.0,
1721884488.287,24.0,
1721884488.312,17.0,
1721884488.337,8.0,
1721884488.362,-3.0,
1721884488.3869998,-14.0,
1721884488.412,-22.0,
1721884488.437,-30.0,
1721884488.462,-41.0,
1721884488.487,-53.0,
1721884488.5119998,-64.0,
1721884488.537,-72.0,
1721884488.562,-81.0,
1721884488.587,-95.0,
1721884488.612,-114.0,
1721884488.6369998,-127.0,
1721884488.662,-119.0,
1721884488.687,-84.0,
1721884488.7120001,-34.0,
1721884488.737,13.0,
1721884488.762,42.0,
1721884488.787,51.0,
1721884488.812,52.0,
1721884488.8370001,55.0,
1721884488.862,62.0,
1721884488.887,68.0,
1721884488.912,68.0,
1721884488.937,65.0,
1721884488.9620001,64.0,
1721884488.987,67.0,
1721884489.012,68.0,
1721884489.037,65.0,
1721884489.062,55.0,
1721884489.087,44.0,
1721884489.112,36.0,
1721884489.1369998,30.0,
1721884489.162,22.0,
1721884489.1869998,10.0,
1721884489.212,-2.0,
1721884489.237,-12.0,
1721884489.2619998,-19.0,
1721884489.287,-27.0,
1721884489.3119998,-39.0,
1721884489.337,-52.0,
1721884489.362,-63.0,
1721884489.3869998,-70.0,
1721884489.412,-78.0,
1721884489.4369998,-93.0,
1721884489.462,-112.0,
1721884489.487,-120.0,
1721884489.512,-104.0,
1721884489.537,-63.0,
1721884489.562,-13.0,
1721884489.587,26.0,
1721884489.612,46.0,
1721884489.637,50.0,
1721884489.662,50.0,
1721884489.687,52.0,
1721884489.712,55.0,
1721884489.737,55.0,
1721884489.762,53.0,
1721884489.787,53.0,
1721884489.812,54.0,
1721884489.837,56.0,
1721884489.862,54.0,
1721884489.8869998,47.0,
1721884489.912,38.0,
1721884489.9369998,28.0,
1721884489.962,17.0,
1721884489.9869998,7.0,
1721884490.0119998,-2.0,
1721884490.037,-10.0,
1721884490.0619998,-21.0,
1721884490.087,-33.0,
1721884490.1119998,-43.0,
1721884490.1369998,-50.0,
1721884490.162,-56.0,
1721884490.1869998,-67.0,
1721884490.212,-85.0,
1721884490.2369998,-98.0,
1721884490.2619998,-94.0,
1721884490.287,-64.0,
1721884490.312,-19.0,
1721884490.337,22.0,
1721884490.362,45.0,
1721884490.3869998,51.0,
1721884490.412,51.0,
1721884490.437,52.0,
1721884490.462,55.0,
1721884490.487,57.0,
1721884490.5119998,54.0,
1721884490.537,52.0,
1721884490.562,52.0,
1721884490.587,53.0,
1721884490.612,52.0,
1721884490.6369998,47.0,
1721884490.662,39.0,
1721884490.687,29.0,
1721884490.7120001,18.0,
1721884490.737,7.0,
1721884490.762,-4.0,
1721884490.787,-15.0,
1721884490.812,-27.0,
1721884490.8370001,-39.0,
1721884490.862,-49.0,
1721884490.887,-57.0,
1721884490.912,-65.0,
1721884490.937,-78.0,
1721884490.9620001,-96.0,
1721884490.987,-109.0,
1721884491.012,-101.0,
1721884491.037,-67.0,
1721884491.062,-20.0,
1721884491.087,21.0,
1721884491.112,41.0,
1721884491.1369998,45.0,
1721884491.162,45.0,
1721884491.1869998,50.0,
1721884491.212,55.0,
1721884491.237,56.0,
1721884491.2619998,51.0,
1721884491.287,47.0,
1721884491.3119998,47.0,
1721884491.337,50.0,
1721884491.362,49.0,
1721884491.3869998,42.0,
1721884491.412,32.0,
1721884491.4369998,22.0,
1721884491.462,12.0,
1721884491.487,1.0,
1721884491.512,-11.0,
1721884491.537,-21.0,
1721884491.562,-32.0,
1721884491.587,-44.0,
1721884491.612,-57.0,
1721884491.637,-68.0,
1721884491.662,-76.0,
1721884491.687,-87.0,
1721884491.712,-103.0,
1721884491.737,-122.0,
1721884491.762,-129.0,
1721884491.787,-110.0,
1721884491.812,-68.0,
1721884491.837,-20.0,
1721884491.862,13.0,
1721884491.8869998,27.0,
1721884491.912,30.0,
1721884491.9369998,34.0,
1721884491.962,41.0,
1721884491.9869998,45.0,
1721884492.0119998,43.0,
1721884492.037,39.0,
1721884492.0619998,38.0,
1721884492.087,42.0,
1721884492.1119998,44.0,
1721884492.1369998,40.0,
1721884492.162,33.0,
1721884492.1869998,24.0,
1721884492.212,17.0,
1721884492.2369998,9.0,
1721884492.2619998,1.0,
1721884492.287,-7.0,
1721884492.312,-14.0,
1721884492.337,-21.0,
1721884492.362,-30.0,
1721884492.3869998,-38.0,
1721884492.412,-42.0,
1721884492.437,-44.0,
1721884492.462,-50.0,
1721884492.487,-63.0,
1721884492.5119998,-73.0,
1721884492.537,-65.0,
1721884492.562,-31.0,
1721884492.587,20.0,
1721884492.612,68.0,
1721884492.6369998,99.0,
1721884492.662,114.0,
1721884492.687,123.0,
1721884492.7120001,131.0,
1721884492.737,137.0,
1721884492.762,137.0,
1721884492.787,133.0,
1721884492.812,132.0,
1721884492.8370001,137.0,
1721884492.862,144.0,
1721884492.887,147.0,
1721884492.912,144.0,
1721884492.937,139.0,
1721884492.9620001,135.0,
1721884492.987,129.0,
1721884493.012,112.0,
1721884493.037,82.0,
1721884493.062,38.0,
1721884493.087,-15.0,
1721884493.112,-70.0,
1721884493.1369998,-121.0,
1721884493.162,-161.0,
1721884493.1869998,-187.0,
1721884493.212,-202.0,
1721884493.237,-210.0,
1721884493.2619998,-213.0,
1721884493.287,-206.0,
1721884493.3119998,-185.0,
1721884493.337,-153.0,
1721884493.362,-119.0,
1721884493.3869998,-92.0,
1721884493.412,-75.0,
1721884493.4369998,-60.0,
1721884493.462,-44.0,
1721884493.487,-26.0,
1721884493.512,-13.0,
1721884493.537,-6.0,
1721884493.562,-3.0,
1721884493.587,0.0,
1721884493.612,4.0,
1721884493.637,6.0,
1721884493.662,6.0,
1721884493.687,3.0,
1721884493.712,0.0,
1721884493.737,-1.0,
1721884493.762,-1.0,
1721884493.787,-3.0,
1721884493.812,-7.0,
1721884493.837,-13.0,
1721884493.862,-21.0,
1721884493.8869998,-27.0,
1721884493.912,-28.0,
1721884493.9369998,-26.0,
1721884493.962,-29.0,
1721884493.9869998,-39.0,
1721884494.0119998,-54.0,
1721884494.037,-60.0,
1721884494.0619998,-43.0,
1721884494.087,-5.0,
1721884494.1119998,39.0,
1721884494.1369998,72.0,
1721884494.162,87.0,
1721884494.1869998,92.0,
1721884494.212,95.0,
1721884494.2369998,100.0,
1721884494.2619998,104.0,
1721884494.287,102.0,
1721884494.312,98.0,
1721884494.337,96.0,
1721884494.362,95.0,
1721884494.3869998,91.0,
1721884494.412,81.0,
1721884494.437,69.0,
1721884494.462,58.0,
1721884494.487,49.0,
1721884494.5119998,38.0,
1721884494.537,22.0,
1721884494.562,5.0,
1721884494.587,-8.0,
1721884494.612,-17.0,
1721884494.6369998,-25.0,
1721884494.662,-37.0,
1721884494.687,-51.0,
1721884494.7120001,-64.0,
1721884494.737,-74.0,
1721884494.762,-85.0,
1721884494.787,-96.0,
1721884494.812,-101.0,
1721884494.8370001,-89.0,
1721884494.862,-59.0,
1721884494.887,-21.0,
1721884494.912,9.0,
1721884494.937,20.0,
1721884494.9620001,19.0,
1721884494.987,16.0,
1721884495.012,15.0,
1721884495.037,15.0,
1721884495.062,11.0,
1721884495.087,6.0,
1721884495.112,5.0,
1721884495.1369998,12.0,
1721884495.162,21.0,
1721884495.1869998,24.0,
1721884495.212,21.0,
1721884495.237,15.0,
1721884495.2619998,11.0,
1721884495.287,9.0,
1721884495.3119998,4.0,
1721884495.337,-6.0,
1721884495.362,-17.0,
1721884495.3869998,-25.0,
1721884495.412,-29.0,
1721884495.4369998,-35.0,
1721884495.462,-48.0,
1721884495.487,-64.0,
1721884495.512,-69.0,
1721884495.537,-55.0,
1721884495.562,-23.0,
1721884495.587,15.0,
1721884495.612,43.0,
1721884495.637,55.0,
1721884495.662,58.0,
1721884495.687,59.0,
1721884495.712,63.0,
1721884495.737,66.0,
1721884495.762,65.0,
1721884495.787,60.0,
1721884495.812,57.0,
1721884495.837,59.0,
1721884495.862,63.0,
1721884495.8869998,60.0,
1721884495.912,46.0,
1721884495.9369998,26.0,
1721884495.962,8.0,
1721884495.9869998,-4.0,
1721884496.0119998,-14.0,
1721884496.037,-28.0,
1721884496.0619998,-45.0,
1721884496.087,-60.0,
1721884496.1119998,-70.0,
1721884496.1369998,-79.0,
1721884496.162,-96.0,
1721884496.1869998,-120.0,
1721884496.212,-137.0,
1721884496.2369998,-130.0,
1721884496.2619998,-95.0,
1721884496.287,-45.0,
1721884496.312,-3.0,
1721884496.337,21.0,
1721884496.362,33.0,
1721884496.3869998,42.0,
1721884496.412,52.0,
1721884496.437,60.0,
1721884496.462,60.0,
1721884496.487,57.0,
1721884496.5119998,56.0,
1721884496.537,59.0,
1721884496.562,63.0,
1721884496.587,63.0,
1721884496.612,58.0,
1721884496.6369998,49.0,
1721884496.662,39.0,
1721884496.687,29.0,
1721884496.7120001,17.0,
1721884496.737,6.0,
1721884496.762,-4.0,
1721884496.787,-14.0,
1721884496.812,-27.0,
1721884496.8370001,-43.0,
1721884496.862,-57.0,
1721884496.887,-70.0,
1721884496.912,-84.0,
1721884496.937,-102.0,
1721884496.9620001,-118.0,
1721884496.987,-118.0,
1721884497.012,-93.0,
1721884497.037,-49.0,
1721884497.062,-3.0,
1721884497.087,28.0,
1721884497.112,43.0,
1721884497.1369998,52.0,
1721884497.162,64.0,
1721884497.1869998,76.0,
1721884497.212,82.0,
1721884497.237,79.0,
1721884497.2619998,74.0,
1721884497.287,73.0,
1721884497.3119998,76.0,
1721884497.337,76.0,
1721884497.362,69.0,
1721884497.3869998,57.0,
1721884497.412,45.0,
1721884497.4369998,35.0,
1721884497.462,25.0,
1721884497.487,14.0,
1721884497.512,1.0,
1721884497.537,-11.0,
1721884497.562,-24.0,
1721884497.587,-37.0,
1721884497.612,-50.0,
1721884497.637,-61.0,
1721884497.662,-72.0,
1721884497.687,-87.0,
1721884497.712,-107.0,
1721884497.737,-124.0,
1721884497.762,-124.0,
1721884497.787,-98.0,
1721884497.812,-53.0,
1721884497.837,-9.0,
1721884497.862,19.0,
1721884497.8869998,29.0,
1721884497.912,32.0,
1721884497.9369998,39.0,
1721884497.962,47.0,
1721884497.9869998,49.0,
1721884498.0119998,44.0,
1721884498.037,38.0,
1721884498.0619998,41.0,
1721884498.087,50.0,
1721884498.1119998,57.0,
1721884498.1369998,55.0,
1721884498.162,43.0,
1721884498.1869998,31.0,
1721884498.212,23.0,
1721884498.2369998,15.0,
1721884498.2619998,2.0,
1721884498.287,-16.0,
1721884498.312,-32.0,
1721884498.337,-42.0,
1721884498.362,-50.0,
1721884498.3869998,-65.0,
1721884498.412,-87.0,
1721884498.437,-105.0,
1721884498.462,-103.0,
1721884498.487,-76.0,
1721884498.5119998,-35.0,
1721884498.537,4.0,
1721884498.562,29.0,
1721884498.587,43.0,
1721884498.612,51.0,
1721884498.6369998,59.0,
1721884498.662,64.0,
1721884498.687,64.0,
1721884498.7120001,61.0,
1721884498.737,59.0,
1721884498.762,59.0,
1721884498.787,61.0,
1721884498.812,59.0,
1721884498.8370001,53.0,
1721884498.862,42.0,
1721884498.887,27.0,
1721884498.912,12.0,
1721884498.937,-2.0,
1721884498.9620001,-16.0,
1721884498.987,-29.0,
1721884499.012,-45.0,
1721884499.037,-60.0,
1721884499.062,-73.0,
1721884499.087,-84.0,
1721884499.112,-98.0,
1721884499.1369998,-117.0,
1721884499.162,-138.0,
1721884499.1869998,-143.0,
1721884499.212,-122.0,
1721884499.237,-75.0,
1721884499.2619998,-21.0,
1721884499.287,20.0,
1721884499.3119998,40.0,
1721884499.337,49.0,
1721884499.362,59.0,
1721884499.3869998,71.0,
1721884499.412,82.0,
1721884499.4369998,86.0,
1721884499.462,85.0,
1721884499.487,85.0,
1721884499.512,86.0,
1721884499.537,85.0,
1721884499.562,79.0,
1721884499.587,68.0,
1721884499.612,55.0,
1721884499.637,42.0,
1721884499.662,28.0,
1721884499.687,13.0,
1721884499.712,-1.0,
1721884499.737,-13.0,
1721884499.762,-26.0,
1721884499.787,-42.0,
1721884499.812,-61.0,
1721884499.837,-78.0,
1721884499.862,-90.0,
1721884499.8869998,-104.0,
1721884499.912,-123.0,
1721884499.9369998,-143.0,
1721884499.962,-149.0,
1721884499.9869998,-126.0,
1721884500.0119998,-74.0,
1721884500.037,-17.0,
1721884500.0619998,24.0,
1721884500.087,42.0,
1721884500.1119998,50.0,
1721884500.1369998,62.0,
1721884500.162,78.0,
1721884500.1869998,91.0,
1721884500.212,94.0,
1721884500.2369998,90.0,
1721884500.2619998,89.0,
1721884500.287,95.0,
1721884500.312,101.0,
1721884500.337,99.0,
1721884500.362,88.0,
1721884500.3869998,75.0,
1721884500.412,63.0,
1721884500.437,50.0,
1721884500.462,31.0,
1721884500.487,8.0,
1721884500.5119998,-10.0,
1721884500.537,-21.0,
1721884500.562,-27.0,
1721884500.587,-38.0,
1721884500.612,-55.0,
1721884500.6369998,-73.0,
1721884500.662,-86.0,
1721884500.687,-95.0,
1721884500.7120001,-110.0,
1721884500.737,-132.0,
1721884500.762,-152.0,
1721884500.787,-150.0,
1721884500.812,-117.0,
1721884500.8370001,-62.0,
1721884500.862,-8.0,
1721884500.887,29.0,
1721884500.912,46.0,
1721884500.937,54.0,
1721884500.9620001,62.0,
1721884500.987,72.0,
1721884501.012,77.0,
1721884501.037,75.0,
1721884501.062,71.0,
1721884501.087,70.0,
1721884501.112,73.0,
1721884501.1369998,77.0,
1721884501.162,75.0,
1721884501.1869998,66.0,
1721884501.212,54.0,
1721884501.237,42.0,
1721884501.2619998,32.0,
1721884501.287,22.0,
1721884501.3119998,9.0,
1721884501.337,-5.0,
1721884501.362,-16.0,
1721884501.3869998,-24.0,
1721884501.412,-33.0,
1721884501.4369998,-45.0,
1721884501.462,-61.0,
1721884501.487,-75.0,
1721884501.512,-85.0,
1721884501.537,-96.0,
1721884501.562,-114.0,
1721884501.587,-137.0,
1721884501.612,-152.0,
1721884501.637,-141.0,
1721884501.662,-100.0,
1721884501.687,-41.0,
1721884501.712,9.0,
1721884501.737,37.0,
1721884501.762,45.0,
1721884501.787,48.0,
1721884501.812,56.0,
1721884501.837,65.0,
1721884501.862,67.0,
1721884501.8869998,62.0,
1721884501.912,58.0,
1721884501.9369998,62.0,
1721884501.962,70.0,
1721884501.9869998,73.0,
1721884502.0119998,66.0,
1721884502.037,53.0,
1721884502.0619998,42.0,
1721884502.087,33.0,
1721884502.1119998,24.0,
1721884502.1369998,13.0,
1721884502.162,1.0,
1721884502.1869998,-10.0,
1721884502.212,-20.0,
1721884502.2369998,-33.0,
1721884502.2619998,-48.0,
1721884502.287,-61.0,
1721884502.312,-68.0,
1721884502.337,-77.0,
1721884502.362,-93.0,
1721884502.3869998,-115.0,
1721884502.412,-126.0,
1721884502.437,-108.0,
1721884502.462,-60.0,
1721884502.487,-1.0,
1721884502.5119998,45.0,
1721884502.537,67.0,
1721884502.562,74.0,
1721884502.587,78.0,
1721884502.612,83.0,
1721884502.6369998,86.0,
1721884502.662,82.0,
1721884502.687,76.0,
1721884502.7120001,73.0,
1721884502.737,75.0,
1721884502.762,75.0,
1721884502.787,69.0,
1721884502.812,57.0,
1721884502.8370001,43.0,
1721884502.862,31.0,
1721884502.887,18.0,
1721884502.912,5.0,
1721884502.937,-8.0,
1721884502.9620001,-18.0,
1721884502.987,-30.0,
1721884503.012,-44.0,
1721884503.037,-59.0,
1721884503.062,-72.0,
1721884503.087,-82.0,
1721884503.112,-94.0,
1721884503.1369998,-114.0,
1721884503.162,-136.0,
1721884503.1869998,-142.0,
1721884503.212,-116.0,
1721884503.237,-63.0,
1721884503.2619998,-4.0,
1721884503.287,38.0,
1721884503.3119998,54.0,
1721884503.337,58.0,
1721884503.362,63.0,
1721884503.3869998,73.0,
1721884503.412,79.0,
1721884503.4369998,76.0,
1721884503.462,69.0,
1721884503.487,66.0,
1721884503.512,69.0,
1721884503.537,71.0,
1721884503.562,66.0,
1721884503.587,54.0,
1721884503.612,40.0,
1721884503.637,30.0,
1721884503.662,20.0,
1721884503.687,7.0,
1721884503.712,-7.0,
1721884503.737,-20.0,
1721884503.762,-29.0,
1721884503.787,-40.0,
1721884503.812,-54.0,
1721884503.837,-69.0,
1721884503.862,-82.0,
1721884504.287,71.0,
1721884504.312,75.0,
1721884504.337,78.0,
1721884504.362,74.0,
1721884504.3869998,62.0,
1721884504.412,49.0,
1721884504.437,39.0,
1721884504.462,28.0,
1721884504.487,14.0,
1721884504.5119998,-3.0,
1721884504.537,-16.0,
1721884504.562,-25.0,
1721884504.587,-34.0,
1721884504.612,-47.0,
1721884504.6369998,-64.0,
1721884504.662,-79.0,
1721884504.687,-87.0,
1721884504.7120001,-95.0,
1721884504.737,-109.0,
1721884504.762,-127.0,
1721884504.787,-133.0,
1721884504.812,-110.0,
1721884504.8370001,-58.0,
1721884504.862,2.0,
1721884504.887,46.0,
1721884504.912,65.0,
1721884504.937,70.0,
1721884504.9620001,72.0,
1721884504.987,78.0,
1721884505.012,82.0,
1721884505.037,79.0,
1721884505.062,73.0,
1721884505.087,72.0,
1721884505.112,76.0,
1721884505.1369998,78.0,
1721884505.162,73.0,
1721884505.1869998,62.0,
1721884505.212,50.0,
1721884505.237,40.0,
1721884505.2619998,30.0,
1721884505.287,15.0,
1721884505.3119998,-1.0,
1721884505.337,-14.0,
1721884505.362,-24.0,
1721884505.3869998,-34.0,
1721884505.412,-48.0,
1721884505.4369998,-63.0,
1721884505.462,-74.0,
1721884505.487,-83.0,
1721884505.512,-95.0,
1721884505.537,-115.0,
1721884505.562,-134.0,
1721884505.587,-135.0,
1721884505.612,-106.0,
1721884505.637,-53.0,
1721884505.662,4.0,
1721884505.687,42.0,
1721884505.712,58.0,
1721884505.737,59.0,
1721884505.762,58.0,
1721884505.787,58.0,
1721884505.812,59.0,
1721884505.837,58.0,
1721884505.862,56.0,
1721884505.8869998,57.0,
1721884505.912,60.0,
1721884505.9369998,61.0,
1721884505.962,57.0,
1721884505.9869998,46.0,
1721884506.0119998,33.0,
1721884506.037,20.0,
1721884506.0619998,10.0,
1721884506.087,0.0,
1721884506.1119998,-13.0,
1721884506.1369998,-27.0,
1721884506.162,-39.0,
1721884506.1869998,-48.0,
1721884506.212,-55.0,
1721884506.2369998,-66.0,
1721884506.2619998,-85.0,
1721884506.287,-104.0,
1721884506.312,-110.0,
1721884506.337,-91.0,
1721884506.362,-47.0,
1721884506.3869998,4.0,
1721884506.412,45.0,
1721884506.437,66.0,
1721884506.462,69.0,
1721884506.487,65.0,
1721884506.5119998,63.0,
1721884506.537,62.0,
1721884506.562,60.0,
1721884506.587,56.0,
1721884506.612,53.0,
1721884506.6369998,55.0,
1721884506.662,57.0,
1721884506.687,55.0,
1721884506.7120001,45.0,
1721884506.737,30.0,
1721884506.762,13.0,
1721884506.787,1.0,
1721884506.812,-9.0,
1721884506.8370001,-22.0,
1721884506.862,-37.0,
1721884506.887,-53.0,
1721884506.912,-65.0,
1721884506.937,-73.0,
1721884506.9620001,-84.0,
1721884506.987,-104.0,
1721884507.012,-125.0,
1721884507.037,-134.0,
1721884507.062,-115.0,
1721884507.087,-69.0,
1721884507.112,-12.0,
1721884507.1369998,33.0,
1721884507.162,57.0,
1721884507.1869998,64.0,
1721884507.212,64.0,
1721884507.237,67.0,
1721884507.2619998,71.0,
1721884507.287,72.0,
1721884507.3119998,69.0,
1721884507.337,65.0,
1721884507.362,63.0,
1721884507.3869998,63.0,
1721884507.412,60.0,
1721884507.4369998,52.0,
1721884507.462,38.0,
1721884507.487,21.0,
1721884507.512,7.0,
1721884507.537,-5.0,
1721884507.562,-16.0,
1721884507.587,-30.0,
1721884507.612,-46.0,
1721884507.637,-60.0,
1721884507.662,-70.0,
1721884507.687,-81.0,
1721884507.712,-98.0,
1721884507.737,-119.0,
1721884507.762,-132.0,
1721884507.787,-121.0,
1721884507.812,-81.0,
1721884507.837,-26.0,
1721884507.862,21.0,
1721884507.8869998,48.0,
1721884507.912,56.0,
1721884507.9369998,58.0,
1721884507.962,63.0,
1721884507.9869998,69.0,
1721884508.0119998,70.0,
1721884508.037,67.0,
1721884508.0619998,63.0,
1721884508.087,64.0,
1721884508.1119998,66.0,
1721884508.1369998,64.0,
1721884508.162,56.0,
1721884508.1869998,46.0,
1721884508.212,37.0,
1721884508.2369998,29.0,
1721884508.2619998,20.0,
1721884508.287,8.0,
1721884508.312,-7.0,
1721884508.337,-22.0,
1721884508.362,-37.0,
1721884508.3869998,-50.0,
1721884508.412,-61.0,
1721884508.437,-72.0,
1721884508.462,-88.0,
1721884508.487,-110.0,
1721884508.5119998,-128.0,
1721884508.537,-127.0,
1721884508.562,-96.0,
1721884508.587,-44.0,
1721884508.612,9.0,
1721884508.6369998,43.0,
1721884508.662,55.0,
1721884508.687,57.0,
1721884508.7120001,62.0,
1721884508.737,68.0,
1721884508.762,71.0,
1721884508.787,67.0,
1721884508.812,62.0,
1721884508.8370001,62.0,
1721884508.862,66.0,
1721884508.887,66.0,
1721884508.912,58.0,
1721884508.937,46.0,
1721884508.9620001,35.0,
1721884508.987,25.0,
1721884509.012,14.0,
1721884509.037,0.0,
1721884509.062,-13.0,
1721884509.087,-25.0,
1721884509.112,-35.0,
1721884509.1369998,-49.0,
1721884509.162,-63.0,
1721884509.1869998,-73.0,
1721884509.212,-80.0,
1721884509.237,-91.0,
1721884509.2619998,-110.0,
1721884509.287,-128.0,
1721884509.3119998,-126.0,
1721884509.337,-94.0,
1721884509.362,-40.0,
1721884509.3869998,12.0,
1721884509.412,42.0,
1721884509.4369998,52.0,
1721884509.462,55.0,
1721884509.487,61.0,
1721884509.512,69.0,
1721884509.537,72.0,
1721884509.562,68.0,
1721884509.587,65.0,
1721884509.612,66.0,
1721884509.637,68.0,
1721884509.662,67.0,
1721884509.687,61.0,
1721884509.712,51.0,
1721884509.737,42.0,
1721884509.762,31.0,
1721884509.787,18.0,
1721884509.812,3.0,
1721884509.837,-9.0,
1721884509.862,-19.0,
1721884509.8869998,-29.0,
1721884509.912,-42.0,
1721884509.9369998,-55.0,
1721884509.962,-63.0,
1721884509.9869998,-70.0,
1721884510.0119998,-82.0,
1721884510.037,-102.0,
1721884510.0619998,-119.0,
1721884510.087,-114.0,
1721884510.1119998,-81.0,
1721884510.1369998,-31.0,
1721884510.162,16.0,
1721884510.1869998,44.0,
1721884510.212,52.0,
1721884510.2369998,53.0,
1721884510.2619998,56.0,
1721884510.287,59.0,
1721884510.312,60.0,
1721884510.337,58.0,
1721884510.362,55.0,
1721884510.3869998,55.0,
1721884510.412,56.0,
1721884510.437,55.0,
1721884510.462,49.0,
1721884510.487,38.0,
1721884510.5119998,25.0,
1721884510.537,13.0,
1721884510.562,2.0,
1721884510.587,-7.0,
1721884510.612,-17.0,
1721884510.6369998,-29.0,
1721884510.662,-40.0,
1721884510.687,-49.0,
1721884510.7120001,-57.0,
1721884510.737,-69.0,
1721884510.762,-88.0,
1721884510.787,-106.0,
1721884510.812,-108.0,
1721884510.8370001,-84.0,
1721884510.862,-39.0,
1721884510.887,8.0,
1721884510.912,40.0,
1721884510.937,52.0,
1721884510.9620001,53.0,
1721884510.987,55.0,
1721884511.012,59.0,
1721884511.037,61.0,
1721884511.062,58.0,
1721884511.087,54.0,
1721884511.112,53.0,
1721884511.1369998,54.0,
1721884511.162,55.0,
1721884511.1869998,49.0,
1721884511.212,38.0,
1721884511.237,25.0,
1721884511.2619998,13.0,
1721884511.287,1.0,
1721884511.3119998,-9.0,
1721884511.337,-19.0,
1721884511.362,-31.0,
1721884511.3869998,-43.0,
1721884511.412,-55.0,
1721884511.4369998,-66.0,
1721884511.462,-75.0,
1721884511.487,-88.0,
1721884511.512,-105.0,
1721884511.537,-121.0,
1721884511.562,-119.0,
1721884511.587,-90.0,
1721884511.612,-40.0,
1721884511.637,12.0,
1721884511.662,44.0,
1721884511.687,56.0,
1721884511.712,59.0,
1721884511.737,66.0,
1721884511.762,76.0,
1721884511.787,82.0,
1721884511.812,78.0,
1721884511.837,71.0,
1721884511.862,69.0,
1721884511.8869998,73.0,
1721884511.912,75.0,
1721884511.9369998,68.0,
1721884511.962,56.0,
1721884511.9869998,42.0,
1721884512.0119998,31.0,
1721884512.037,19.0,
1721884512.0619998,5.0,
1721884512.087,-9.0,
1721884512.1119998,-20.0,
1721884512.1369998,-30.0,
1721884512.162,-43.0,
1721884512.1869998,-60.0,
1721884512.212,-76.0,
1721884512.2369998,-86.0,
1721884512.2619998,-94.0,
1721884512.287,-110.0,
1721884512.312,-133.0,
1721884512.337,-149.0,
1721884512.362,-140.0,
1721884512.3869998,-100.0,
1721884512.412,-46.0,
1721884512.437,0.0,
1721884512.462,24.0,
1721884512.487,33.0,
1721884512.5119998,40.0,
1721884512.537,50.0,
1721884512.562,60.0,
1721884512.587,63.0,
1721884512.612,59.0,
1721884512.6369998,56.0,
1721884512.662,58.0,
1721884512.687,65.0,
1721884512.7120001,69.0,
1721884512.737,68.0,
1721884512.762,59.0,
1721884512.787,49.0,
1721884512.812,40.0,
1721884512.8370001,31.0,
1721884512.862,20.0,
1721884512.887,7.0,
1721884512.912,-5.0,
1721884512.937,-14.0,
1721884512.9620001,-22.0,
1721884512.987,-32.0,
1721884513.012,-45.0,
1721884513.037,-60.0,
1721884513.062,-70.0,
1721884513.087,-76.0,
1721884513.112,-85.0,
1721884513.1369998,-101.0,
1721884513.162,-123.0,
1721884513.1869998,-133.0,
1721884513.212,-117.0,
1721884513.237,-71.0,
1721884513.2619998,-12.0,
1721884513.287,37.0,
1721884513.3119998,64.0,
1721884513.337,73.0,
1721884513.362,79.0,
1721884513.3869998,89.0,
1721884513.412,100.0,
1721884513.4369998,105.0,
1721884513.462,103.0,
1721884513.487,101.0,
1721884513.512,102.0,
1721884513.537,107.0,
1721884513.562,109.0,
1721884513.587,105.0,
1721884513.612,96.0,
1721884513.637,85.0,
1721884513.662,76.0,
1721884513.687,65.0,
1721884513.712,52.0,
1721884513.737,36.0,
1721884513.762,22.0,
1721884513.787,13.0,
1721884513.812,8.0,
1721884513.837,3.0,
1721884513.862,-9.0,
1721884513.8869998,-28.0,
1721884513.912,-50.0,
1721884513.9369998,-68.0,
1721884513.962,-85.0,
1721884513.9869998,-107.0,
1721884514.0119998,-135.0,
1721884514.037,-162.0,
1721884514.0619998,-169.0,
1721884514.087,-144.0,
1721884514.1119998,-94.0,
1721884514.1369998,-38.0,
1721884514.162,1.0,
1721884514.1869998,17.0,
1721884514.212,18.0,
1721884514.2369998,17.0,
1721884514.2619998,19.0,
1721884514.287,19.0,
1721884514.312,12.0,
1721884514.337,-1.0,
1721884514.362,-12.0,
1721884514.3869998,-17.0,
1721884514.412,-15.0,
1721884514.437,-10.0,
1721884514.462,-5.0,
1721884514.487,-4.0,
1721884514.5119998,-4.0,
1721884514.537,-5.0,
1721884514.562,-6.0,
1721884514.587,-6.0,
1721884514.612,-10.0,
1721884514.6369998,-17.0,
1721884514.662,-26.0,
1721884514.687,-32.0,
1721884514.7120001,-38.0,
1721884514.737,-48.0,
1721884514.762,-63.0,
1721884514.787,-77.0,
1721884514.812,-78.0,
1721884514.8370001,-55.0,
1721884514.862,-14.0,
1721884514.887,28.0,
1721884514.912,56.0,
1721884514.937,66.0,
1721884514.9620001,66.0,
1721884514.987,65.0,
1721884515.012,68.0,
1721884515.037,69.0,
1721884515.062,66.0,
1721884515.087,60.0,
1721884515.112,57.0,
1721884515.1369998,58.0,
1721884515.162,59.0,
1721884515.1869998,56.0,
1721884515.212,45.0,
1721884515.237,31.0,
1721884515.2619998,17.0,
1721884515.287,6.0,
1721884515.3119998,-7.0,
1721884515.337,-22.0,
1721884515.362,-37.0,
1721884515.3869998,-46.0,
1721884515.412,-48.0,
1721884515.4369998,-47.0,
1721884515.462,-54.0,
1721884515.487,-72.0,
1721884515.512,-91.0,
1721884515.537,-93.0,
1721884515.562,-67.0,
1721884515.587,-18.0,
1721884515.612,35.0,
1721884515.637,72.0,
1721884515.662,86.0,
1721884515.687,85.0,
1721884515.712,78.0,
1721884515.737,73.0,
1721884515.762,67.0,
1721884515.787,58.0,
1721884515.812,49.0,
1721884515.837,44.0,
1721884515.862,44.0,
1721884515.8869998,47.0,
1721884515.912,46.0,
1721884515.9369998,39.0,
1721884515.962,24.0,
1721884515.9869998,7.0,
1721884516.0119998,-8.0,
1721884516.037,-18.0,
1721884516.0619998,-28.0,
1721884516.087,-42.0,
1721884516.1119998,-58.0,
1721884516.1369998,-73.0,
1721884516.162,-82.0,
1721884516.1869998,-90.0,
1721884516.212,-102.0,
1721884516.2369998,-122.0,
1721884516.2619998,-139.0,
1721884516.287,-136.0,
1721884516.312,-104.0,
1721884516.337,-54.0,
1721884516.362,-5.0,
1721884516.3869998,26.0,
1721884516.412,38.0,
1721884516.437,44.0,
1721884516.462,52.0,
1721884516.487,61.0,
1721884516.5119998,65.0,
1721884516.537,61.0,
1721884516.562,54.0,
1721884516.587,50.0,
1721884516.612,51.0,
1721884516.6369998,54.0,
1721884516.662,51.0,
1721884516.687,42.0,
1721884516.7120001,29.0,
1721884516.737,15.0,
1721884516.762,4.0,
1721884516.787,-3.0,
1721884516.812,-11.0,
1721884516.8370001,-20.0,
1721884516.862,-31.0,
1721884516.887,-38.0,
1721884516.912,-41.0,
1721884516.937,-43.0,
1721884516.9620001,-50.0,
1721884516.987,-64.0,
1721884517.012,-72.0,
1721884517.037,-59.0,
1721884517.062,-22.0,
1721884517.087,28.0,
1721884517.112,69.0,
1721884517.1369998,89.0,
1721884517.162,92.0,
1721884517.1869998,93.0,
1721884517.212,97.0,
1721884517.237,100.0,
1721884517.2619998,95.0,
1721884517.287,83.0,
1721884517.3119998,71.0,
1721884517.337,65.0,
1721884517.362,62.0,
1721884517.3869998,56.0,
1721884517.412,45.0,
1721884517.4369998,31.0,
1721884517.462,17.0,
1721884517.487,3.0,
1721884517.512,-14.0,
1721884517.537,-31.0,
1721884517.562,-47.0,
1721884517.587,-59.0,
1721884517.612,-74.0,
1721884517.637,-92.0,
1721884517.662,-111.0,
1721884517.687,-125.0,
1721884517.712,-135.0,
1721884517.737,-147.0,
1721884517.762,-166.0,
1721884517.787,-181.0,
1721884517.812,-177.0,
1721884517.837,-142.0,
1721884517.862,-84.0,
1721884517.8869998,-26.0,
1721884517.912,12.0,
1721884517.9369998,29.0,
1721884517.962,35.0,
1721884517.9869998,43.0,
1721884518.0119998,54.0,
1721884518.037,61.0,
1721884518.0619998,60.0,
1721884518.087,55.0,
1721884518.1119998,55.0,
1721884518.1369998,61.0,
1721884518.162,69.0,
1721884518.1869998,70.0,
1721884518.212,64.0,
1721884518.2369998,55.0,
1721884518.2619998,46.0,
1721884518.287,39.0,
1721884518.312,31.0,
1721884518.337,19.0,
1721884518.362,8.0,
1721884518.3869998,1.0,
1721884518.412,-1.0,
1721884518.437,-5.0,
1721884518.462,-12.0,
1721884518.487,-22.0,
1721884518.5119998,-26.0,
1721884518.537,-24.0,
1721884518.562,-24.0,
1721884518.587,-35.0,
1721884518.612,-55.0,
1721884518.6369998,-67.0,
1721884518.662,-51.0,
1721884518.687,-7.0,
1721884518.7120001,47.0,
1721884518.737,85.0,
1721884518.762,95.0,
1721884518.787,88.0,
1721884518.812,80.0,
1721884518.8370001,77.0,
1721884518.862,74.0,
1721884518.887,62.0,
1721884518.912,47.0,
1721884518.937,38.0,
1721884518.9620001,41.0,
1721884518.987,46.0,
1721884519.012,43.0,
1721884519.037,31.0,
1721884519.062,17.0,
1721884519.087,11.0,
1721884519.112,11.0,
1721884519.1369998,8.0,
1721884519.162,-3.0,
1721884519.1869998,-20.0,
1721884519.212,-36.0,
1721884519.237,-47.0,
1721884519.2619998,-59.0,
1721884519.287,-76.0,
1721884519.3119998,-93.0,
1721884519.337,-106.0,
1721884519.362,-111.0,
1721884519.3869998,-115.0,
1721884519.412,-128.0,
1721884519.4369998,-146.0,
1721884519.462,-154.0,
1721884519.487,-136.0,
1721884519.512,-91.0,
1721884519.537,-34.0,
1721884519.562,13.0,
1721884519.587,39.0,
1721884519.612,50.0,
1721884519.637,56.0,
1721884519.662,65.0,
1721884519.687,74.0,
1721884519.712,78.0,
1721884519.737,78.0,
1721884519.762,79.0,
1721884519.787,87.0,
1721884519.812,97.0,
1721884519.837,102.0,
1721884519.862,95.0,
1721884519.8869998,78.0,
1721884519.912,61.0,
1721884519.9369998,48.0,
1721884519.962,37.0,
1721884519.9869998,25.0,
1721884520.0119998,11.0,
1721884520.037,-1.0,
1721884520.0619998,-10.0,
1721884520.087,-18.0,
1721884520.1119998,-30.0,
1721884520.1369998,-46.0,
1721884520.162,-61.0,
1721884520.1869998,-74.0,
1721884520.212,-87.0,
1721884520.2369998,-108.0,
1721884520.2619998,-134.0,
1721884520.287,-150.0,
1721884520.312,-140.0,
1721884520.337,-98.0,
1721884520.362,-39.0,
1721884520.3869998,14.0,
1721884520.412,48.0,
1721884520.437,63.0,
1721884520.462,69.0,
1721884520.487,74.0,
1721884520.5119998,78.0,
1721884520.537,78.0,
1721884520.562,72.0,
1721884520.587,66.0,
1721884520.612,63.0,
1721884520.6369998,65.0,
1721884520.662,65.0,
1721884520.287,62.0,
1721884520.312,54.0,
1721884520.337,44.0,
1721884520.362,35.0,
1721884520.3869998,27.0,
1721884520.412,20.0,
1721884520.437,11.0,
1721884520.462,-4.0,
1721884520.487,-23.0,
1721884520.5119998,-44.0,
1721884520.537,-63.0,
1721884520.562,-80.0,
1721884520.587,-98.0,
1721884520.612,-119.0,
1721884520.6369998,-136.0,
1721884520.662,-135.0,
1721884520.687,-107.0,
1721884520.7120001,-55.0,
1721884520.737,2.0,
1721884520.762,45.0,
1721884520.787,65.0,
1721884520.812,69.0,
1721884520.8370001,68.0,
1721884520.862,65.0,
1721884520.887,59.0,
1721884520.912,49.0,
1721884520.937,39.0,
1721884520.9620001,33.0,
1721884520.987,35.0,
1721884521.012,37.0,
1721884521.037,35.0,
1721884521.062,28.0,
1721884521.087,19.0,
1721884521.112,13.0,
1721884521.1369998,5.0,
1721884521.162,-8.0,
1721884521.1869998,-25.0,
1721884521.212,-41.0,
1721884521.237,-54.0,
1721884521.2619998,-65.0,
1721884521.287,-81.0,
1721884521.3119998,-102.0,
1721884521.337,-115.0,
1721884521.362,-106.0,
1721884521.3869998,-70.0,
1721884521.412,-17.0,
1721884521.4369998,31.0,
1721884521.462,60.0,
1721884521.487,70.0,
1721884521.512,69.0,
1721884521.537,68.0,
1721884521.562,66.0,
1721884521.587,61.0,
1721884521.612,52.0,
1721884521.637,44.0,
1721884521.662,42.0,
1721884521.687,46.0,
1721884521.712,49.0,
1721884521.737,45.0,
1721884521.762,34.0,
1721884521.787,21.0,
1721884521.812,10.0,
1721884521.837,3.0,
1721884521.862,-6.0,
1721884521.8869998,-19.0,
1721884521.912,-34.0,
1721884521.9369998,-46.0,
1721884521.962,-56.0,
1721884521.9869998,-69.0,
1721884522.0119998,-90.0,
1721884522.037,-111.0,
1721884522.0619998,-116.0,
1721884522.087,-91.0,
1721884522.1119998,-42.0,
1721884522.1369998,12.0,
1721884522.162,49.0,
1721884522.1869998,62.0,
1721884522.212,61.0,
1721884522.2369998,58.0,
1721884522.2619998,60.0,
1721884522.287,59.0,
1721884522.312,52.0,
1721884522.337,44.0,
1721884522.362,40.0,
1721884522.3869998,44.0,
1721884522.412,47.0,
1721884522.437,41.0,
1721884522.462,27.0,
1721884522.487,12.0,
1721884522.5119998,1.0,
1721884522.537,-8.0,
1721884522.562,-19.0,
1721884522.587,-33.0,
1721884522.612,-44.0,
1721884522.6369998,-53.0,
1721884522.662,-64.0,
1721884522.687,-84.0,
1721884522.7120001,-107.0,
1721884522.737,-119.0,
1721884522.762,-103.0,
1721884522.787,-62.0,
1721884522.812,-12.0,
1721884522.8370001,29.0,
1721884522.862,51.0,
1721884522.887,59.0,
1721884522.912,63.0,
1721884522.937,66.0,
1721884522.9620001,68.0,
1721884522.987,67.0,
1721884523.012,62.0,
1721884523.037,59.0,
1721884523.062,58.0,
1721884523.087,58.0,
1721884523.112,55.0,
1721884523.1369998,46.0,
1721884523.162,31.0,
1721884523.1869998,14.0,
1721884523.212,-2.0,
1721884523.237,-15.0,
1721884523.2619998,-28.0,
1721884523.287,-43.0,
1721884523.3119998,-58.0,
1721884523.337,-70.0,
1721884523.362,-78.0,
1721884523.3869998,-86.0,
1721884523.412,-102.0,
1721884523.4369998,-122.0,
1721884523.462,-131.0,
1721884523.487,-114.0,
1721884523.512,-68.0,
1721884523.537,-12.0,
1721884523.562,31.0,
1721884523.587,52.0,
1721884523.612,58.0,
1721884523.637,62.0,
1721884523.662,71.0,
1721884523.687,78.0,
1721884523.712,79.0,
1721884523.737,74.0,
1721884523.762,71.0,
1721884523.787,74.0,
1721884523.812,76.0,
1721884523.837,73.0,
1721884523.862,63.0,
1721884523.8869998,50.0,
1721884523.912,37.0,
1721884523.9369998,24.0,
1721884523.962,10.0,
1721884523.9869998,-5.0,
1721884524.0119998,-18.0,
1721884524.037,-30.0,
1721884524.0619998,-46.0,
1721884524.087,-62.0,
1721884524.1119998,-76.0,
1721884524.1369998,-85.0,
1721884524.162,-94.0,
1721884524.1869998,-110.0,
1721884524.212,-130.0,
1721884524.2369998,-137.0,
1721884524.2619998,-116.0,
1721884524.287,-66.0,
1721884524.312,-9.0,
1721884524.337,31.0,
1721884524.362,49.0,
1721884524.3869998,53.0,
1721884524.412,57.0,
1721884524.437,64.0,
1721884524.462,68.0,
1721884524.487,66.0,
1721884524.5119998,62.0,
1721884524.537,62.0,
1721884524.562,66.0,
1721884524.587,69.0,
1721884524.612,66.0,
1721884524.6369998,58.0,
1721884524.662,49.0,
1721884524.687,40.0,
1721884524.7120001,29.0,
1721884524.737,16.0,
1721884524.762,3.0,
1721884524.787,-8.0,
1721884524.812,-17.0,
1721884524.8370001,-27.0,
1721884524.862,-38.0,
1721884524.887,-46.0,
1721884524.912,-52.0,
1721884524.937,-61.0,
1721884524.9620001,-77.0,
1721884524.987,-95.0,
1721884525.012,-100.0,
1721884525.037,-79.0,
1721884525.062,-33.0,
1721884525.087,18.0,
1721884525.112,53.0,
1721884525.1369998,66.0,
1721884525.162,66.0,
1721884525.1869998,65.0,
1721884525.212,66.0,
1721884525.237,65.0,
1721884525.2619998,59.0,
1721884525.287,51.0,
1721884525.3119998,46.0,
1721884525.337,44.0,
1721884525.362,43.0,
1721884525.3869998,36.0,
1721884525.412,23.0,
1721884525.4369998,5.0,
1721884525.462,-10.0,
1721884525.487,-22.0,
1721884525.512,-31.0,
1721884525.537,-40.0,
1721884525.562,-50.0,
1721884525.587,-61.0,
1721884525.612,-70.0,
1721884525.637,-77.0,
1721884525.662,-86.0,
1721884525.687,-101.0,
1721884525.712,-116.0,
1721884525.737,-121.0,
1721884525.762,-103.0,
1721884525.787,-63.0,
1721884525.812,-13.0,
1721884525.837,26.0,
1721884525.862,45.0,
1721884525.8869998,48.0,
1721884525.912,46.0,
1721884525.9369998,50.0,
1721884525.962,56.0,
1721884525.9869998,59.0,
1721884526.0119998,56.0,
1721884526.037,53.0,
1721884526.0619998,55.0,
1721884526.087,60.0,
1721884526.1119998,62.0,
1721884526.1369998,54.0,
1721884526.162,40.0,
1721884526.1869998,26.0,
1721884526.212,16.0,
1721884526.2369998,6.0,
1721884526.2619998,-8.0,
1721884526.687,73.0,
1721884526.7120001,68.0,
1721884526.737,63.0,
1721884526.762,61.0,
1721884526.787,61.0,
1721884526.812,60.0,
1721884526.8370001,55.0,
1721884526.862,43.0,
1721884526.887,28.0,
1721884526.912,10.0,
1721884526.937,-6.0,
1721884526.9620001,-21.0,
1721884526.987,-36.0,
1721884527.012,-53.0,
1721884527.037,-73.0,
1721884527.062,-90.0,
1721884527.087,-102.0,
1721884527.112,-112.0,
1721884527.1369998,-127.0,
1721884527.162,-146.0,
1721884527.1869998,-156.0,
1721884527.212,-141.0,
1721884527.237,-97.0,
1721884527.2619998,-38.0,
1721884527.287,11.0,
1721884527.3119998,39.0,
1721884527.337,50.0,
1721884527.362,59.0,
1721884527.3869998,72.0,
1721884527.412,86.0,
1721884527.4369998,93.0,
1721884527.462,91.0,
1721884527.487,85.0,
1721884527.512,83.0,
1721884527.537,84.0,
1721884527.562,84.0,
1721884527.587,80.0,
1721884527.612,72.0,
1721884527.637,62.0,
1721884527.662,48.0,
1721884527.687,33.0,
1721884527.712,18.0,
1721884527.737,4.0,
1721884527.762,-9.0,
1721884527.787,-25.0,
1721884527.812,-41.0,
1721884527.837,-54.0,
1721884527.862,-64.0,
1721884527.8869998,-76.0,
1721884527.912,-95.0,
1721884527.9369998,-119.0,
1721884527.962,-135.0,
1721884527.9869998,-128.0,
1721884528.0119998,-94.0,
1721884528.037,-49.0,
1721884528.0619998,-11.0,
1721884528.087,11.0,
1721884528.1119998,22.0,
1721884528.1369998,34.0,
1721884528.162,49.0,
1721884528.1869998,63.0,
1721884528.212,69.0,
1721884528.2369998,69.0,
1721884528.2619998,67.0,
1721884528.287,69.0,
1721884528.312,74.0,
1721884528.337,76.0,
1721884528.362,71.0,
1721884528.3869998,60.0,
1721884528.412,48.0,
1721884528.437,38.0,
1721884528.462,31.0,
1721884528.487,23.0,
1721884528.5119998,12.0,
1721884528.537,1.0,
1721884528.562,-8.0,
1721884528.587,-15.0,
1721884528.612,-23.0,
1721884528.6369998,-36.0,
1721884528.662,-50.0,
1721884528.687,-62.0,
1721884528.7120001,-72.0,
1721884528.737,-84.0,
1721884528.762,-106.0,
1721884528.787,-130.0,
1721884528.812,-142.0,
1721884528.8370001,-125.0,
1721884528.862,-80.0,
1721884528.887,-26.0,
1721884528.912,15.0,
1721884528.937,33.0,
1721884528.9620001,37.0,
1721884528.987,39.0,
1721884529.012,47.0,
1721884529.037,53.0,
1721884529.062,54.0,
1721884529.087,49.0,
1721884529.112,45.0,
1721884529.1369998,48.0,
1721884529.162,54.0,
1721884529.1869998,59.0,
1721884529.212,58.0,
1721884529.237,54.0,
1721884529.2619998,49.0,
1721884529.287,44.0,
1721884529.3119998,38.0,
1721884529.337,32.0,
1721884529.362,25.0,
1721884529.3869998,17.0,
1721884529.412,9.0,
1721884529.4369998,1.0,
1721884529.462,-9.0,
1721884529.487,-24.0,
1721884529.512,-41.0,
1721884529.537,-59.0,
1721884529.562,-72.0,
1721884529.587,-82.0,
1721884529.612,-95.0,
1721884529.637,-115.0,
1721884529.662,-136.0,
1721884529.687,-142.0,
1721884529.712,-119.0,
1721884529.737,-69.0,
1721884529.762,-10.0,
1721884529.787,35.0,
1721884529.812,58.0,
1721884529.837,64.0,
1721884529.862,68.0,
1721884529.8869998,75.0,
1721884529.912,81.0,
1721884529.9369998,82.0,
1721884529.962,78.0,
1721884529.9869998,76.0,
1721884530.0119998,80.0,
1721884530.037,84.0,
1721884530.0619998,81.0,
1721884530.087,70.0,
1721884530.1119998,56.0,
1721884530.1369998,44.0,
1721884530.162,36.0,
1721884530.1869998,26.0,
1721884530.212,13.0,
1721884530.2369998,-3.0,
1721884530.2619998,-16.0,
1721884530.287,-26.0,
1721884530.312,-37.0,
1721884530.337,-51.0,
1721884530.362,-67.0,
1721884530.3869998,-81.0,
1721884530.412,-89.0,
1721884530.437,-97.0,
1721884530.462,-110.0,
1721884530.487,-131.0,
1721884530.5119998,-145.0,
1721884530.537,-139.0,
1721884530.562,-103.0,
1721884530.587,-47.0,
1721884530.612,8.0,
1721884530.6369998,44.0,
1721884530.662,60.0,
1721884530.687,66.0,
1721884530.7120001,73.0,
1721884530.737,82.0,
1721884530.762,88.0,
1721884530.787,88.0,
1721884530.812,84.0,
1721884530.8370001,84.0,
1721884530.862,87.0,
1721884530.887,90.0,
1721884530.912,86.0,
1721884530.937,73.0,
1721884530.9620001,58.0,
1721884530.987,45.0,
1721884531.012,34.0,
1721884531.037,21.0,
1721884531.062,6.0,
1721884531.087,-9.0,
1721884531.112,-20.0,
1721884531.1369998,-29.0,
1721884531.162,-39.0,
1721884531.1869998,-55.0,
1721884531.212,-71.0,
1721884531.237,-84.0,
1721884531.2619998,-93.0,
1721884531.287,-104.0,
1721884531.3119998,-121.0,
1721884531.337,-141.0,
1721884531.362,-147.0,
1721884531.3869998,-126.0,
1721884531.412,-78.0,
1721884531.4369998,-19.0,
1721884531.462,31.0,
1721884531.487,58.0,
1721884531.512,67.0,
1721884531.537,70.0,
1721884531.562,74.0,
1721884531.587,79.0,
1721884531.612,80.0,
1721884531.637,78.0,
1721884531.662,76.0,
1721884531.687,79.0,
1721884531.712,83.0,
1721884531.737,82.0,
1721884531.762,71.0,
1721884531.787,55.0,
1721884531.812,39.0,
1721884531.837,27.0,
1721884531.862,16.0,
1721884531.8869998,3.0,
1721884531.912,-11.0,
1721884531.9369998,-23.0,
1721884531.962,-33.0,
1721884531.9869998,-42.0,
1721884532.0119998,-55.0,
1721884532.037,-69.0,
1721884532.0619998,-82.0,
1721884532.087,-90.0,
1721884532.1119998,-98.0,
1721884532.1369998,-113.0,
1721884532.162,-132.0,
1721884532.1869998,-142.0,
1721884532.212,-127.0,
1721884532.2369998,-83.0,
1721884532.2619998,-24.0,
1721884532.287,28.0,
1721884532.312,58.0,
1721884532.337,69.0,
1721884532.362,72.0,
1721884532.3869998,78.0,
1721884532.412,84.0,
1721884532.437,85.0,
1721884532.462,82.0,
1721884532.487,79.0,
1721884532.5119998,81.0,
1721884532.537,86.0,
1721884532.562,88.0,
1721884532.587,80.0,
1721884532.612,67.0,
1721884532.6369998,53.0,
1721884532.662,43.0,
1721884532.687,34.0,
1721884532.7120001,22.0,
1721884532.737,7.0,
1721884532.762,-6.0,
1721884532.787,-16.0,
1721884532.812,-27.0,
1721884532.8370001,-42.0,
1721884532.862,-60.0,
1721884532.887,-77.0,
1721884532.912,-90.0,
1721884532.937,-104.0,
1721884532.9620001,-122.0,
1721884532.987,-141.0,
1721884533.012,-149.0,
1721884533.037,-131.0,
1721884533.062,-83.0,
1721884533.087,-24.0,
1721884533.112,24.0,
1721884533.1369998,49.0,
1721884533.162,55.0,
1721884533.1869998,56.0,
1721884533.212,60.0,
1721884533.237,65.0,
1721884533.2619998,66.0,
1721884533.287,63.0,
1721884533.3119998,61.0,
1721884533.337,65.0,
1721884533.362,71.0,
1721884533.3869998,71.0,
1721884533.412,64.0,
1721884533.4369998,52.0,
1721884533.462,42.0,
1721884533.487,32.0,
1721884533.512,20.0,
1721884533.537,6.0,
1721884533.562,-8.0,
1721884533.587,-19.0,
1721884533.612,-29.0,
1721884533.637,-41.0,
1721884533.662,-56.0,
1721884533.687,-68.0,
1721884533.712,-76.0,
1721884533.737,-86.0,
1721884533.762,-103.0,
1721884533.787,-125.0,
1721884533.812,-134.0,
1721884533.837,-116.0,
1721884533.862,-68.0,
1721884533.8869998,-10.0,
1721884533.912,35.0,
1721884533.9369998,59.0,
1721884533.962,65.0,
1721884533.9869998,68.0,
1721884534.0119998,71.0,
1721884534.037,72.0,
1721884534.0619998,70.0,
1721884534.087,68.0,
1721884534.1119998,70.0,
1721884534.1369998,75.0,
1721884534.162,78.0,
1721884534.1869998,74.0,
1721884534.212,64.0,
1721884534.2369998,52.0,
1721884534.2619998,42.0,
1721884534.287,30.0,
1721884534.312,17.0,
1721884534.337,3.0,
1721884534.362,-9.0,
1721884534.3869998,-21.0,
1721884534.412,-35.0,
1721884534.437,-50.0,
1721884534.462,-64.0,
1721884534.487,-74.0,
1721884534.5119998,-86.0,
1721884534.537,-105.0,
1721884534.562,-124.0,
1721884534.587,-129.0,
1721884534.612,-105.0,
1721884534.6369998,-57.0,
1721884534.662,-4.0,
1721884534.687,33.0,
1721884534.7120001,48.0,
1721884534.737,51.0,
1721884534.762,53.0,
1721884534.787,56.0,
1721884534.812,58.0,
1721884534.8370001,58.0,
1721884534.862,58.0,
1721884534.887,61.0,
1721884534.912,65.0,
1721884534.937,65.0,
1721884534.9620001,58.0,
1721884534.987,47.0,
1721884535.012,36.0,
1721884535.037,25.0,
1721884535.062,11.0,
1721884535.087,-3.0,
1721884535.112,-15.0,
1721884535.1369998,-25.0,
1721884535.162,-36.0,
1721884535.1869998,-49.0,
1721884535.212,-63.0,
1721884535.237,-74.0,
1721884535.2619998,-85.0,
1721884535.287,-100.0,
1721884535.3119998,-120.0,
1721884535.337,-130.0,
1721884535.362,-116.0,
1721884535.3869998,-72.0,
1721884535.412,-14.0,
1721884535.4369998,34.0,
1721884535.462,60.0,
1721884535.487,68.0,
1721884535.512,73.0,
1721884535.537,79.0,
1721884535.562,83.0,
1721884535.587,81.0,
1721884535.612,75.0,
1721884535.637,73.0,
1721884535.662,75.0,
1721884535.687,77.0,
1721884535.712,73.0,
1721884535.737,64.0,
1721884535.762,51.0,
1721884535.787,38.0,
1721884535.812,24.0,
1721884535.837,10.0,
1721884535.862,-5.0,
1721884535.8869998,-18.0,
1721884535.912,-30.0,
1721884535.9369998,-45.0,
1721884535.962,-61.0,
1721884535.9869998,-73.0,
1721884536.0119998,-83.0,
1721884536.037,-96.0,
1721884536.0619998,-115.0,
1721884536.087,-132.0,
1721884536.1119998,-132.0,
1721884536.1369998,-104.0,
1721884536.162,-54.0,
1721884536.1869998,-4.0,
1721884536.212,30.0,
1721884536.2369998,44.0,
1721884536.2619998,49.0,
1721884536.287,54.0,
1721884536.312,60.0,
1721884536.337,62.0,
1721884536.362,60.0,
1721884536.3869998,57.0,
1721884536.412,57.0,
1721884536.437,60.0,
1721884536.462,60.0,
1721884536.487,53.0,
1721884536.5119998,41.0,
1721884536.537,27.0,
1721884536.562,13.0,
1721884536.587,1.0,
1721884536.612,-11.0,
1721884536.6369998,-23.0,
1721884536.662,-36.0,
1721884536.687,-49.0,
1721884536.7120001,-61.0,
1721884536.737,-70.0,
1721884536.762,-79.0,
1721884536.787,-93.0,
1721884536.812,-112.0,
1721884536.8370001,-128.0,
1721884536.862,-126.0,
1721884536.887,-95.0,
1721884536.912,-45.0,
1721884536.937,7.0,
1721884536.9620001,41.0,
1721884536.987,55.0,
1721884537.012,59.0,
1721884537.037,64.0,
1721884537.062,71.0,
1721884537.087,76.0,
1721884537.112,75.0,
1721884537.1369998,72.0,
1721884537.162,74.0,
1721884537.1869998,80.0,
1721884537.212,84.0,
1721884537.237,81.0,
1721884537.2619998,70.0,
1721884537.287,56.0,
1721884537.3119998,44.0,
1721884537.337,31.0,
1721884537.362,13.0,
1721884537.3869998,-9.0,
1721884537.412,-32.0,
1721884537.4369998,-49.0,
1721884537.462,-59.0,
1721884537.487,-66.0,
1721884537.512,-78.0,
1721884537.537,-93.0,
1721884537.562,-103.0,
1721884537.587,-94.0,
1721884537.612,-60.0,
1721884537.637,-10.0,
1721884537.662,38.0,
1721884537.687,68.0,
1721884537.712,79.0,
1721884537.737,80.0,
1721884537.762,81.0,
1721884537.787,85.0,
1721884537.812,88.0,
1721884537.837,84.0,
1721884537.862,78.0,
1721884537.8869998,75.0,
1721884537.912,76.0,
1721884537.9369998,73.0,
1721884537.962,60.0,
1721884537.9869998,34.0,
1721884538.0119998,4.0,
1721884538.037,-22.0,
1721884538.0619998,-40.0,
1721884538.087,-53.0,
1721884538.1119998,-61.0,
1721884538.1369998,-66.0,
1721884538.162,-69.0,
1721884538.1869998,-78.0,
1721884538.212,-99.0,
1721884538.2369998,-131.0,
1721884538.2619998,-158.0,
1721884538.287,-160.0,
1721884538.312,-130.0,
1721884538.337,-82.0,
1721884538.362,-36.0,
1721884538.3869998,-6.0,
1721884538.412,12.0,
1721884538.437,25.0,
1721884538.462,40.0,
1721884538.487,52.0,
1721884538.5119998,58.0,
1721884538.537,58.0,
1721884538.562,59.0,
1721884538.587,63.0,
1721884538.612,67.0,
1721884538.6369998,64.0,
1721884538.662,54.0,
1721884538.687,40.0,
1721884538.7120001,25.0,
1721884538.737,11.0,
1721884538.762,-3.0,
1721884538.787,-16.0,
1721884538.812,-28.0,
1721884538.8370001,-38.0,
1721884538.862,-49.0,
1721884538.887,-60.0,
1721884538.912,-71.0,
1721884538.937,-79.0,
1721884538.9620001,-90.0,
1721884538.987,-108.0,
1721884539.012,-130.0,
1721884539.037,-140.0,
1721884539.062,-123.0,
1721884539.087,-76.0,
1721884539.112,-19.0,
1721884539.1369998,27.0,
1721884539.162,51.0,
1721884539.1869998,62.0,
1721884539.212,73.0,
1721884539.237,91.0,
1721884539.2619998,106.0,
1721884539.287,110.0,
1721884539.3119998,107.0,
1721884539.337,105.0,
1721884539.362,109.0,
1721884539.3869998,114.0,
1721884539.412,112.0,
1721884539.4369998,103.0,
1721884539.462,90.0,
1721884539.487,78.0,
1721884539.512,66.0,
1721884539.537,51.0,
1721884539.562,35.0,
1721884539.587,19.0,
1721884539.612,4.0,
1721884539.637,-15.0,
1721884539.662,-40.0,
1721884539.687,-66.0,
1721884539.712,-87.0,
1721884539.737,-101.0,
1721884539.762,-114.0,
1721884539.787,-134.0,
1721884539.812,-157.0,
1721884539.837,-167.0,
1721884539.862,-150.0,
1721884539.8869998,-104.0,
1721884539.912,-49.0,
1721884539.9369998,-4.0,
1721884539.962,24.0,
1721884539.9869998,39.0,
1721884540.0119998,52.0,
1721884540.037,68.0,
1721884540.0619998,82.0,
1721884540.087,88.0,
1721884540.1119998,87.0,
1721884540.1369998,86.0,
1721884540.162,87.0,
1721884540.1869998,90.0,
1721884540.212,88.0,
1721884540.2369998,79.0,
1721884540.2619998,65.0,
1721884540.287,50.0,
1721884540.312,36.0,
1721884540.337,23.0,
1721884540.362,10.0,
1721884540.3869998,-3.0,
1721884540.412,-13.0,
1721884540.437,-20.0,
1721884540.462,-27.0,
1721884540.487,-39.0,
1721884540.5119998,-55.0,
1721884540.537,-71.0,
1721884540.562,-84.0,
1721884540.587,-96.0,
1721884540.612,-113.0,
1721884540.6369998,-136.0,
1721884540.662,-155.0,
1721884540.687,-155.0,
1721884540.7120001,-126.0,
1721884540.737,-76.0,
1721884540.762,-23.0,
1721884540.787,15.0,
1721884540.812,36.0,
1721884540.8370001,47.0,
1721884540.862,57.0,
1721884540.887,69.0,
1721884540.912,77.0,
1721884540.937,80.0,
1721884540.9620001,78.0,
1721884540.987,80.0,
1721884541.012,85.0,
1721884541.037,89.0,
1721884541.062,87.0,
1721884541.087,77.0,
1721884541.112,65.0,
1721884541.1369998,53.0,
1721884541.162,45.0,
1721884541.1869998,37.0,
1721884541.212,26.0,
1721884541.237,12.0,
1721884541.2619998,-1.0,
1721884541.287,-12.0,
1721884541.3119998,-23.0,
1721884541.337,-36.0,
1721884541.362,-52.0,
1721884541.3869998,-67.0,
1721884541.412,-78.0,
1721884541.4369998,-88.0,
1721884541.462,-105.0,
1721884541.487,-130.0,
1721884541.512,-150.0,
1721884541.537,-147.0,
1721884541.562,-113.0,
1721884541.587,-57.0,
1721884541.612,-2.0,
1721884541.637,33.0,
1721884541.662,48.0,
1721884541.687,57.0,
1721884541.712,69.0,
1721884541.737,82.0,
1721884541.762,88.0,
1721884541.787,84.0,
1721884541.812,79.0,
1721884541.837,81.0,
1721884541.862,89.0,
1721884541.8869998,92.0,
1721884541.912,84.0,
1721884541.9369998,71.0,
1721884541.962,60.0,
1721884541.9869998,53.0,
1721884542.0119998,44.0,
1721884542.037,28.0,
1721884542.0619998,8.0,
1721884542.087,-9.0,
1721884542.1119998,-22.0,
1721884542.1369998,-33.0,
1721884542.162,-48.0,
1721884542.1869998,-63.0,
1721884542.212,-75.0,
1721884542.2369998,-86.0,
1721884542.2619998,-101.0,
1721884542.287,-126.0,
1721884542.312,-148.0,
1721884542.337,-149.0,
1721884542.362,-119.0,
1721884542.3869998,-66.0,
1721884542.412,-14.0,
1721884542.437,20.0,
1721884542.462,34.0,
1721884542.487,40.0,
1721884542.5119998,46.0,
1721884542.537,55.0,
1721884542.562,61.0,
1721884542.587,63.0,
1721884542.612,63.0,
1721884542.6369998,64.0,
1721884542.662,67.0,
1721884542.687,69.0,
1721884542.7120001,65.0,
1721884542.737,54.0,
1721884542.762,40.0,
1721884542.787,27.0,
1721884542.812,15.0,
1721884542.8370001,4.0,
1721884542.862,-9.0,
1721884542.887,-25.0,
1721884542.912,-40.0,
1721884542.937,-51.0,
1721884542.9620001,-61.0,
1721884542.987,-76.0,
1721884543.012,-97.0,
1721884543.037,-117.0,
1721884543.062,-117.0,
1721884543.087,-90.0,
1721884543.112,-42.0,
1721884543.1369998,7.0,
1721884543.162,40.0,
1721884543.1869998,55.0,
1721884543.212,60.0,
1721884543.237,65.0,
1721884543.2619998,72.0,
1721884543.287,75.0,
1721884543.3119998,74.0,
1721884543.337,69.0,
1721884543.362,68.0,
1721884543.3869998,71.0,
1721884543.412,73.0,
1721884543.4369998,68.0,
1721884543.462,55.0,
1721884543.487,36.0,
1721884543.512,18.0,
1721884543.537,4.0,
1721884543.562,-8.0,
1721884543.587,-21.0,
1721884543.612,-38.0,
1721884543.637,-54.0,
1721884543.662,-68.0,
1721884543.687,-78.0,
1721884543.712,-92.0,
1721884543.737,-114.0,
1721884543.762,-140.0,
1721884543.787,-154.0,
1721884543.812,-138.0,
1721884543.837,-93.0,
1721884543.862,-36.0,
1721884543.8869998,10.0,
1721884543.912,35.0,
1721884543.9369998,44.0,
1721884543.962,53.0,
1721884543.9869998,65.0,
1721884544.0119998,76.0,
1721884544.037,78.0,
1721884544.0619998,74.0,
1721884544.087,70.0,
1721884544.1119998,71.0,
1721884544.1369998,74.0,
1721884544.162,73.0,
1721884544.1869998,65.0,
1721884544.212,52.0,
1721884544.2369998,37.0,
1721884544.2619998,22.0,
1721884544.287,7.0,
1721884544.312,-7.0,
1721884544.337,-20.0,
1721884544.362,-33.0,
1721884544.3869998,-46.0,
1721884544.412,-61.0,
1721884544.437,-75.0,
1721884544.462,-87.0,
1721884544.487,-103.0,
1721884544.5119998,-124.0,
1721884544.537,-144.0,
1721884544.562,-146.0,
1721884544.587,-117.0,
1721884544.612,-62.0,
1721884544.6369998,-1.0,
1721884544.662,44.0,
1721884544.687,66.0,
1721884544.7120001,75.0,
1721884544.737,87.0,
1721884544.762,104.0,
1721884544.787,117.0,
1721884544.812,120.0,
1721884544.8370001,113.0,
1721884544.862,106.0,
1721884544.887,105.0,
1721884544.912,106.0,
1721884544.937,99.0,
1721884544.9620001,84.0,
1721884544.987,64.0,
1721884545.012,46.0,
1721884545.037,32.0,
1721884545.062,17.0,
1721884545.087,-1.0,
1721884545.112,-20.0,
1721884545.1369998,-35.0,
1721884545.162,-47.0,
1721884545.1869998,-60.0,
1721884545.212,-78.0,
1721884545.237,-97.0,
1721884545.2619998,-110.0,
1721884545.287,-118.0,
1721884545.3119998,-129.0,
1721884545.337,-151.0,
1721884545.362,-175.0,
1721884545.3869998,-184.0,
1721884545.412,-160.0,
1721884545.4369998,-104.0,
1721884545.462,-37.0,
1721884545.487,17.0,
1721884545.512,48.0,
1721884545.537,64.0,
1721884545.562,76.0,
1721884545.587,92.0,
1721884545.612,107.0,
1721884545.637,114.0,
1721884545.662,114.0,
1721884545.687,112.0,
1721884545.712,113.0,
1721884545.737,116.0,
1721884545.762,114.0,
1721884545.787,104.0,
1721884545.812,86.0,
1721884545.837,66.0,
1721884545.862,47.0,
1721884545.8869998,33.0,
1721884545.912,19.0,
1721884545.9369998,5.0,
1721884545.962,-11.0,
1721884545.9869998,-26.0,
1721884546.0119998,-41.0,
1721884546.037,-55.0,
1721884546.0619998,-70.0,
1721884546.087,-87.0,
1721884546.1119998,-101.0,
1721884546.1369998,-115.0,
1721884546.162,-130.0,
1721884546.1869998,-151.0,
1721884546.212,-175.0,
1721884546.2369998,-189.0,
1721884546.2619998,-176.0,
1721884546.287,-129.0,
1721884546.312,-62.0,
1721884546.337,2.0,
1721884546.362,44.0,
1721884546.3869998,64.0,
1721884546.412,73.0,
1721884546.437,83.0,
1721884546.462,95.0,
1721884546.487,103.0,
1721884546.5119998,104.0,
1721884546.537,99.0,
1721884546.562,98.0,
1721884546.587,100.0,
1721884546.612,102.0,
1721884546.6369998,98.0,
1721884546.662,86.0,
1721884546.687,71.0,
1721884546.7120001,56.0,
1721884546.737,43.0,
1721884546.762,30.0,
1721884546.787,16.0,
1721884546.812,2.0,
1721884546.8370001,-11.0,
1721884546.862,-22.0,
1721884546.887,-33.0,
1721884546.912,-46.0,
1721884546.937,-63.0,
1721884546.9620001,-78.0,
1721884546.987,-90.0,
1721884547.012,-101.0,
1721884547.037,-116.0,
1721884547.062,-137.0,
1721884547.087,-155.0,
1721884547.112,-155.0,
1721884547.1369998,-125.0,
1721884547.162,-69.0,
1721884547.1869998,-6.0,
1721884547.212,42.0,
1721884547.237,66.0,
1721884547.2619998,73.0,
1721884547.287,76.0,
1721884547.3119998,81.0,
1721884547.337,86.0,
1721884547.362,87.0,
1721884547.3869998,84.0,
1721884547.412,86.0,
1721884547.4369998,93.0,
1721884547.462,98.0,
1721884547.487,94.0,
1721884547.512,80.0,
1721884547.537,61.0,
1721884547.562,47.0,
1721884547.587,37.0,
1721884547.612,27.0,
1721884547.637,13.0,
1721884547.662,-3.0,
1721884547.687,-16.0,
1721884547.712,-26.0,
1721884547.737,-38.0,
1721884547.762,-54.0,
1721884547.787,-71.0,
1721884547.812,-83.0,
1721884547.837,-92.0,
1721884547.862,-104.0,
1721884547.8869998,-126.0,
1721884547.912,-149.0,
1721884547.9369998,-154.0,
1721884547.962,-128.0,
1721884547.9869998,-72.0,
1721884548.0119998,-10.0,
1721884548.037,38.0,
1721884548.0619998,62.0,
1721884548.087,70.0,
1721884548.1119998,74.0,
1721884548.1369998,78.0,
1721884548.162,79.0,
1721884548.1869998,76.0,
1721884548.212,71.0,
1721884548.2369998,72.0,
1721884548.2619998,77.0,
1721884548.287,81.0,
1721884548.312,79.0,
1721884548.337,70.0,
1721884548.362,56.0,
1721884548.3869998,42.0,
1721884548.412,28.0,
1721884548.437,14.0,
1721884548.462,1.0,
1721884548.487,-14.0,
1721884548.5119998,-29.0,
1721884548.537,-47.0,
1721884548.562,-63.0,
1721884548.587,-75.0,
1721884548.612,-82.0,
1721884548.6369998,-93.0,
1721884548.662,-113.0,
1721884548.687,-138.0,
1721884548.7120001,-150.0,
1721884548.737,-133.0,
1721884548.762,-86.0,
1721884548.787,-25.0,
1721884548.812,24.0,
1721884548.8370001,51.0,
1721884548.862,61.0,
1721884548.887,66.0,
1721884548.912,74.0,
1721884548.937,81.0,
1721884548.9620001,82.0,
1721884548.987,78.0,
1721884549.012,76.0,
1721884549.037,79.0,
1721884549.062,83.0,
1721884549.087,80.0,
1721884549.112,68.0,
1721884549.1369998,50.0,
1721884549.162,33.0,
1721884549.1869998,19.0,
1721884549.212,5.0,
1721884549.237,-12.0,
1721884549.2619998,-32.0,
1721884549.287,-50.0,
1721884549.3119998,-64.0,
1721884549.337,-77.0,
1721884549.362,-94.0,
1721884549.3869998,-114.0,
1721884549.412,-128.0,
1721884549.4369998,-121.0,
1721884549.462,-86.0,
1721884549.487,-34.0,
1721884549.512,17.0,
1721884549.537,50.0,
1721884549.562,62.0,
1721884549.587,64.0,
1721884549.612,65.0,
1721884549.637,69.0,
1721884549.662,71.0,
1721884549.687,69.0,
1721884549.712,65.0,
1721884549.737,64.0,
1721884549.762,65.0,
1721884549.787,62.0,
1721884549.812,51.0,
1721884549.837,33.0,
1721884549.862,15.0,
1721884549.8869998,1.0,
1721884549.912,-12.0,
1721884549.9369998,-29.0,
1721884549.962,-48.0,
1721884549.9869998,-65.0,
1721884550.0119998,-76.0,
1721884550.037,-86.0,
1721884550.0619998,-101.0,
1721884550.087,-121.0,
1721884550.1119998,-134.0,
1721884550.1369998,-124.0,
1721884550.162,-86.0,
1721884550.1869998,-31.0,
1721884550.212,20.0,
1721884550.2369998,51.0,
1721884550.2619998,64.0,
1721884550.287,68.0,
1721884550.312,71.0,
1721884550.337,73.0,
1721884550.362,72.0,
1721884550.3869998,66.0,
1721884550.412,61.0,
1721884550.437,60.0,
1721884550.462,63.0,
1721884550.487,63.0,
1721884550.5119998,53.0,
1721884550.537,34.0,
1721884550.562,15.0,
1721884550.587,1.0,
1721884550.612,-9.0,
1721884550.6369998,-23.0,
1721884550.662,-41.0,
1721884550.687,-59.0,
1721884550.7120001,-71.0,
1721884550.737,-79.0,
1721884550.762,-90.0,
1721884550.787,-111.0,
1721884550.812,-134.0,
1721884550.8370001,-141.0,
1721884550.862,-118.0,
1721884550.887,-68.0,
1721884550.912,-11.0,
1721884550.937,33.0,
1721884550.9620001,56.0,
1721884550.987,65.0,
1721884551.012,71.0,
1721884551.037,78.0,
1721884551.062,84.0,
1721884551.087,85.0,
1721884551.112,82.0,
1721884551.1369998,80.0,
1721884551.162,81.0,
1721884551.1869998,84.0,
1721884551.212,81.0,
1721884551.237,70.0,
1721884551.2619998,52.0,
1721884551.287,33.0,
1721884551.3119998,17.0,
1721884551.337,4.0,
1721884551.362,-9.0,
1721884551.3869998,-27.0,
1721884551.412,-46.0,
1721884551.4369998,-63.0,
1721884551.462,-76.0,
1721884551.487,-89.0,
